time,atomic_fraction_H_enclosure_2_at_interface,concentration_H_encl_1_inventory,concentration_H_encl_2_inventory,concentration_H_enclosure_1_at_interface,concentration_H_enclosure_2_at_interface,concentration_ratio_H2,mass_conservation_sum_encl1_encl2,pressure_H2_enclosure_1,pressure_H2_enclosure_1_at_interface,temperature
0,1.55,0.10252086693324,37668.875,0.20504173386647,75337.75,0.00074702638750261,37668.977520867,1000,1000,1173.15
10,1.550000769607,0.10124047154326,37668.876349729,0.19614240347298,75337.787406748,0.00071460337348663,37668.977590201,987.51088019171,956.5974681072,1173.15
22,1.5500012836652,0.10075527095138,37668.877251281,0.1961426777997,75337.812392547,0.0007146042544387,37668.978006552,982.77817936315,956.59880601398,1173.15
36.4,1.5500017188832,0.10042645882878,37668.878014564,0.19614291546239,75337.833546317,0.00071460501998691,37668.978441023,979.5709091514,956.59996510817,1173.15
53.68,1.5500021080353,0.10023859074612,37668.87869706,0.19614312712388,75337.852461058,0.00071460570142411,37668.978935651,977.73842286565,956.60099739311,1173.15
74.416,1.5500024908921,0.10015994168662,37668.879368518,0.19614333555925,75337.871069812,0.00071460637255866,37668.979528459,976.97127114472,956.60201394407,1173.15
99.2992,1.5500029073402,0.10015206573896,37668.88009889,0.19614356240842,75337.891311272,0.00071460710303637,37668.980250956,976.89444827058,956.60312030013,1173.15
129.15904,1.5500033935981,0.10017762584919,37668.880951698,0.19614382734018,75337.914945834,0.00071460795616725,37668.981129324,977.14376444388,956.60441238714,1173.15
164.990848,1.5500039809911,0.10020996762044,37668.881981882,0.19614414738361,75337.943496073,0.00071460898677187,37668.98219185,977.45922969711,956.60597325684,1173.15
207.9890176,1.5500046969399,0.10023595760982,37668.883237534,0.19614453746104,75337.978294762,0.00071461024289538,37668.983473492,977.71273895971,956.60787568629,1173.15
259.58682112,1.5500055676075,0.10025290922962,37668.884764543,0.1961450118231,75338.020613563,0.00071461177042543,37668.985017452,977.87808695483,956.61018917656,1173.15
321.504185344,1.5500066214728,0.10026322343606,37668.886612859,0.19614558598896,75338.071836687,0.00071461361933746,37668.986876083,977.97869287774,956.6129894156,1173.15
395.8050224128,1.5500078926096,0.10027001115618,37668.888842249,0.19614627852796,75338.133620289,0.00071461584942938,37668.989112261,978.04490105883,956.61636696699,1173.15
484.96602689536,1.5500094229037,0.10027517719336,37668.891526183,0.19614711226514,75338.208000235,0.0007146185342028,37668.99180136,978.09529116316,956.62043314987,1173.15
591.95923227443,1.5500112634625,0.10027945043319,37668.894754308,0.19614811504942,75338.297460594,0.00071462176333638,37668.995033759,978.13697282223,956.62532378485,1173.15
720.35107872932,1.5500134759635,0.10028303825246,37668.898634817,0.19614932049009,75338.404999208,0.00071462564505812,37668.998917855,978.17196881259,956.6312027864,1173.15
874.42129447518,1.5500161344625,0.10028605645947,37668.903297621,0.19615076894309,75338.53421555,0.00071463030932144,37669.003583677,978.20140874132,956.63826697267,1173.15
1059.3055533702,1.5500193277797,0.10028863428251,37668.908898539,0.196152508813,75338.689426733,0.00071463591199805,37669.009187173,978.22655311545,956.64675241546,1173.15
1281.1666640443,1.5500231624361,0.10029089501337,37668.915624457,0.19615459815443,75338.875810207,0.00071464264003488,37669.015915352,978.24860453711,956.65694225043,1173.15
1547.3999968531,1.5500277661602,0.10029294066857,37668.923699481,0.19615710658571,75339.099574217,0.0007146507176165,37669.023992421,978.26855808668,956.66917601004,1173.15
1866.8799962237,1.550033292068,0.10029485564857,37668.933392287,0.19616011757031,75339.368160964,0.0007146604135121,37669.033687143,978.28723701567,956.68386075027,1173.15
2250.2559954685,1.5500399236523,0.10029671405426,37668.945024889,0.19616373114142,75339.690489118,0.00071467204984946,37669.045321603,978.30536411262,956.70148433863,1173.15
2710.3071945622,1.5500478807373,0.10029858467227,37668.958983108,0.19616806715485,75340.077243239,0.0007146860125904,37669.059281692,978.32361032981,956.72263131854,1173.15
3262.3686334746,1.5500574265746,0.10030053438531,37668.975729055,0.19617326916761,75340.541218657,0.00071470276402143,37669.076029589,978.34262804888,956.74800182564,1173.15
3924.8423601695,1.5500688762848,0.10030263105531,37668.995815999,0.19617950905582,75341.097731823,0.00071472285762526,37669.09611863,978.36307920249,956.77843410931,1173.15
4719.8108322034,1.5500826068846,0.10030494621286,37669.019906027,0.19618699250336,75341.765107624,0.00071474695575713,37669.120210973,978.3856615081,956.81493130136,1173.15
5673.7729986441,1.5500990691668,0.10030755768799,37669.048791002,0.19619596551243,75342.56525685,0.00071477585061233,37669.14909856,978.41113412859,956.85869316828,1173.15
6818.527598373,1.5501188017415,0.10031055230386,37669.083417355,0.19620672210711,75343.524358643,0.00071481048903669,37669.183727907,978.44034394666,956.91115368193,1173.15
8192.2331180476,1.5501424475745,0.10031402874344,37669.124915332,0.19621961342107,75344.673664357,0.00071485200179575,37669.225229361,978.47425352698,956.97402534089,1173.15
9840.6797416571,1.5501707733897,0.10031810068554,37669.174633372,0.19623505837846,75346.050440609,0.00071490173797643,37669.274951473,978.51397170554,957.04935126161,1173.15
11818.815689988,1.5502046923172,0.10032290029694,37669.234178324,0.19625355618962,75347.699070077,0.00071496130523604,37669.334501224,978.56078765185,957.13956612083,1173.15
14192.578827986,1.5502452901632,0.10032858215951,37669.305462236,0.1962757008865,75349.672328381,0.0007150326166239,37669.405790818,978.61620917475,957.24756704565,1173.15
17041.094593583,1.5502938556429,0.10033532770209,37669.3907564,0.19630219810922,75352.032853523,0.00071511794465816,37669.491091727,978.68200595131,957.37679548232,1173.15
20459.3135123,1.550351914821,0.10034335019247,37669.492753218,0.19633388431494,75354.854819875,0.00071521998321191,37669.593096568,978.76025821961,957.53133087921,1173.15
24561.17621476,1.550421269833,0.10035290032168,37669.614636201,0.19637174849904,75358.225820234,0.00071534191750131,37669.714989101,978.85341124784,957.71599662205,1173.15
29483.411457712,1.550504041664,0.10036427237424,37669.760157968,0.19641695637476,75362.24894508,0.00071548750200732,37669.86052224,978.96433552007,957.93647795953,1173.15
35390.093749255,1.5506027162892,0.10037781091807,37669.933725401,0.19647087672289,75367.045025238,0.00071566114540801,37670.034103212,979.09639199054,958.19945051204,1173.15
42478.112499105,1.550720192761,0.10039391785506,37670.140489979,0.19653510925731,75372.754969148,0.00071586800042311,37670.240883897,979.25350085495,958.51271617366,1173.15
50983.734998927,1.5508598307622,0.10041305953471,37670.38643966,0.19661151280336,75379.542074198,0.00071611405470621,37670.486852719,979.44021093873,958.88534053951,1173.15
61190.481998712,1.5510254936221,0.10043577343316,37670.678486266,0.19670223178552,75387.594117503,0.00071640621634513,37670.778922039,979.66176484407,959.3277820876,1173.15
73438.578398454,1.5512215806637,0.10046267361489,37671.024538955,0.19680971788617,75397.124928158,0.00071675238387805,37671.125001628,979.92415222469,959.85199781004,1173.15
88136.294078145,1.5514530398813,0.10049445380367,37671.43354979,0.19693674217366,75408.375003431,0.00071716148569749,37671.534044244,980.2341397397,960.4715023621,1173.15
105773.55289377,1.5517253482008,0.10053188636672,37671.915511425,0.19708639091056,75421.610549298,0.00071764346698993,37672.016043311,980.59926114542,961.20134761884,1173.15
126938.26347253,1.5520444419112,0.10057581484702,37672.481379438,0.1972620355768,75437.120099092,0.00071820919373092,37672.581955253,981.02774445438,962.05797647646,1173.15
152335.91616703,1.5524165744185,0.10062713686566,37673.142883129,0.1974672643923,75455.207599611,0.00071887023276945,37673.243510266,981.52834516309,963.05888888402,1173.15
182813.09940044,1.5528480727641,0.10068677330849,37673.912179351,0.19770575899288,75476.1805767,0.00071963845530889,37674.012866124,982.11004569496,964.22204038536,1173.15
219385.71928053,1.5533449595262,0.10075561884061,37674.80129621,0.19798109643236,75500.331757772,0.00072052539982379,37674.902051829,982.78157271365,965.56487647186,1173.15
263272.86313664,1.5539124049434,0.10083446823496,37675.821310541,0.19829645445332,75527.912442274,0.00072154132318738,37675.922145009,983.55067852307,967.10289517187,1173.15
315937.43576396,1.5545539789886,0.10092391325351,37676.981210962,0.19865419898106,75559.096148742,0.00072269387193416,37677.082134875,984.42313523581,968.84763523523,1173.15
379134.92291676,1.5552706901055,0.10102420668444,37678.286425839,0.19905534025199,75593.931892578,0.00072398632948262,37678.387450046,985.40140857601,970.80402364145,1173.15
454971.90750011,1.5560598335227,0.10113509475517,37679.737054195,0.19949886245619,75632.288208372,0.00072541545454076,37679.83818929,986.48302321746,972.96710622876,1173.15
545976.28900013,1.556913735023,0.10125562787227,37681.325939916,0.1999809666962,75673.792090792,0.00072696903843286,37681.427195544,987.65871671971,975.31835556187,1173.15
655181.54680015,1.5578185701779,0.10138397359439,37683.036882782,0.20049432288345,75717.771603499,0.00072862348915153,37683.138266755,988.91061524492,977.82202238897,1173.15
786227.85616018,1.5587535587201,0.10151727470646,37684.843474856,0.20102750204027,75763.21672159,0.00073034199489159,37684.944992131,990.21084919787,980.42236694692,1173.15
943483.42739222,1.5596909526998,0.10165161585932,37686.709244881,0.20156484285533,75808.778755975,0.00073207408623942,37686.810896497,991.52122782492,983.04300814484,1173.15
1132190.1128707,1.5605972978442,0.10178217575399,37688.589892617,0.20208706039913,75852.831661715,0.00073375759158629,37688.691674793,992.79472363687,985.58989230325,1173.15
1358638.1354448,1.5614363599092,0.10190363332233,37690.438251788,0.20257287079442,75893.614273388,0.00073532387128209,37690.540155422,993.97943433987,987.95921676285,1173.15
1630375.7625338,1.5621737740493,0.10201084816809,37692.212073935,0.20300171289312,75929.456287665,0.00073670659456893,37692.314084783,995.02521993421,990.0507036549,1173.15
1956460.9150405,1.5627828573457,0.10209973892174,37693.883713394,0.20335726157909,75959.06078129,0.00073785307569339,37693.985813133,995.89227028517,991.78473447518,1173.15
2347763.0980486,1.5632502452552,0.102168156463,37695.449515884,0.20363092053777,75981.778170627,0.0007387355484546,37695.551684041,996.55962263307,993.119384517,1173.15
2817325.7176583,1.5635794253421,0.10221645058954,37696.935748535,0.20382408884692,75997.777968755,0.00073935848677844,37697.037964986,997.03068894364,994.06147716084,1173.15
3380800.86119,1.5637903533874,0.10224744293681,37698.398087367,0.20394805264709,76008.030126395,0.00073975826202507,37698.50033481,997.3329917645,994.66605554507,1173.15
4056971.033428,1.5639144990188,0.10226570130181,37699.913573438,0.20402108251888,76014.064224807,0.00073999378262043,37700.015839139,997.51108589832,995.0222263129,1173.15
4868375.2401136,1.5639866405167,0.1022763171993,37701.567169009,0.204063543855,76017.570662315,0.00074013072135163,37701.669445327,997.61463454948,995.22931262322,1173.15
5842060.2881363,1.5640364965826,0.10228365620856,37703.437934851,0.20409289839885,76019.993916395,0.00074022539097424,37703.540218507,997.68622006646,995.37247637477,1173.15
7010482.3457636,1.5640835449061,0.10229058372053,37705.590289707,0.20412060732602,76022.280700162,0.00074031475385011,37705.692580291,997.75379179288,995.50761436178,1173.15
8412588.8149163,1.5641366272306,0.10229840181267,37708.072981815,0.20415187874993,76024.860766545,0.00074041560648904,37708.175280216,997.83005033788,995.66012684459,1173.15
10095116.5779,1.5641972346236,0.10230733100515,37710.924022315,0.20418759468704,76027.806588879,0.00074053079366678,37711.026329646,997.91714667978,995.8343154668,1173.15
12114149.893479,1.5642636933124,0.10231712571008,37714.177136172,0.20422677277885,76031.03681345,0.00074065714741681,37714.279453298,998.01268532693,996.02538921101,1173.15
14536989.872175,1.5643339511991,0.10232748428455,37717.866093403,0.20426820645403,76034.451698033,0.00074079077659263,37717.968420887,998.11372402058,996.22746356143,1173.15
17444397.84661,1.5644064657784,0.10233817983966,37722.026223553,0.20431098814884,76037.976269157,0.00074092875429995,37722.128561733,998.21804966108,996.43611227893,1173.15
20933287.415933,1.5644800463362,0.1023490370567,37726.694593975,0.20435441657497,76041.552652171,0.00074106881884208,37726.796943012,998.32395217013,996.64791514129,1173.15
25119954.899119,1.5645535874362,0.10235989292333,37731.910404299,0.20439783967006,76045.127117334,0.00074120886722124,37732.012764192,998.42984150721,996.85969200381,1173.15
30143955.878943,1.5646260310789,0.10237059116448,37737.716069578,0.20444063232302,76048.648240591,0.00074134688330247,37737.81844017,998.5341933476,997.06839416487,1173.15
36172757.054731,1.5646964644128,0.1023809966994,37744.158641843,0.20448225420216,76052.071652782,0.00074148112432861,37744.261022839,998.63569009878,997.27138639652,1173.15
43407318.465678,1.5647642081054,0.10239100875971,37751.291042151,0.20452230222631,76055.364334964,0.00074161029016742,37751.39343316,998.73334885459,997.46670284936,1173.15
52088792.158813,1.5648288384873,0.10240056424461,37759.172738347,0.20456052398556,76058.505694673,0.000741733566616,37759.275138912,998.82655412286,997.65311250625,1173.15
62088792.158813,1.5648878919269,0.10240929822233,37767.53295977,0.20459545975189,76061.375987106,0.00074184624546267,37767.635369069,998.91174631813,997.82349619189,1173.15
72088792.158813,1.5649354180016,0.10241632941297,37775.278266585,0.20462358441063,76063.685991966,0.00074193695682432,37775.380682914,998.98032933787,997.96066172502,1173.15
82088792.158813,1.5649747229474,0.1024221457572,37782.525291898,0.20464684970942,76065.596408856,0.00074201199546125,37782.627714044,999.03706260994,998.074127888,1173.15
92088792.158813,1.5650079592047,0.10242706506007,37789.360251453,0.2046665268599,76067.211857146,0.00074207546130771,37789.462678518,999.08504604017,998.17009445105,1173.15
102088792.15881,1.5650365580333,0.10243129871231,37795.847646118,0.20468346141996,76068.601903208,0.00074213008148737,37795.950077416,999.12634155754,998.25268524725,1173.15
112088792.15881,1.5650615148807,0.10243499377702,37802.036862657,0.20469824163873,76069.814930776,0.00074217775325162,37802.13929765,999.16238363192,998.32476920055,1173.15
121088792.15881,1.5650814504398,0.10243794577163,37807.383431662,0.20471004958684,76070.783898625,0.00074221583841018,37807.485869608,999.19117771742,998.38235722368,1173.15
130088792.15881,1.5650994319277,0.10244060869743,37812.542377459,0.20472070126401,76071.657888847,0.00074225019421651,37812.644818068,999.21715219345,998.43430604879,1173.15
140088792.15881,1.5651175350387,0.10244328990672,37818.078317888,0.20473142607626,76072.537790558,0.00074228478597399,37818.180761178,999.24330500866,998.48661155776,1173.15
150088792.15881,1.5651340013744,0.1024457289341,37823.427627033,0.20474118216428,76073.338136801,0.00074231625326707,37823.530072762,999.26709555441,998.53419254449,1173.15
160088792.15881,1.5651491111384,0.10244796722201,37828.607188188,0.20475013529724,76074.072546882,0.00074234513075365,37828.709636155,999.28892806505,998.57785747451,1173.15
170088792.15881,1.5651630927373,0.10245003855837,37833.631121359,0.20475842062624,76074.752122495,0.00074237185434012,37833.733571398,999.3091321115,998.61826548728,1173.15
180088792.15881,1.5651761309946,0.10245197028795,37838.511207574,0.20476614753002,76075.385846992,0.00074239677680951,37838.613659544,999.32797441782,998.65595002904,1173.15
190088792.15881,1.5651883749735,0.10245378446733,37843.25730468,0.20477340423461,76075.980965589,0.00074242018272088,37843.359758465,999.3456701264,998.69134138303,1173.15
200088792.15881,1.5651999447595,0.10245549886693,37847.87770859,0.2047802618214,76076.543315036,0.00074244230133634,37847.980164089,999.3623925718,998.72478621721,1173.15
210088792.15881,1.5652109371149,0.10245712780676,37852.37945306,0.20478677757024,76077.077598469,0.00074246331740353,37852.481910188,999.37828143304,998.75656388863,1173.15
220088792.15881,1.5652214301018,0.10245868283992,37856.768553535,0.20479299769337,76077.5876101,0.00074248337997314,37856.871012217,999.3934494003,998.78689977686,1173.15
230088792.15881,1.5652314868205,0.10246017330537,37861.050203606,0.20479895954655,76078.076416911,0.00074250260953085,37861.152663779,999.40798756703,998.81597606815,1173.15
240088792.15881,1.5652411584122,0.10246160677225,37865.228932579,0.20480469340613,76078.546504624,0.00074252110372861,37865.331394186,999.42196976321,998.84394042194,1173.15
250088792.15881,1.5652504864635,0.10246298939545,37869.308731553,0.20481022389168,76078.999894559,0.00074253894197321,37869.411194543,999.43545602453,998.87091290916,1173.15
260088792.15881,1.5652595049267,0.10246432619982,37873.293154219,0.20481557110248,76079.43823696,0.00074255618909197,37873.395618545,999.44849536388,998.89699155518,1173.15
270088792.15881,1.5652682416514,0.10246562130687,37877.185397419,0.20482075152446,76079.862885467,0.00074257289825778,37877.287863041,999.46112798282,998.92225676283,1173.15
280088792.15881,1.565276719607,0.10246687811557,37880.988365554,0.2048257787535,76080.274956498,0.00074258911332203,37881.090832432,999.4733870354,998.94677483991,1173.15
290088792.15881,1.565284957856,0.10246809944656,37884.704722085,0.2048306640721,76080.67537659,0.00074260487067468,37884.807190185,999.48530003445,998.9706008119,1173.15
300088792.15881,1.565292972331,0.1024692876571,37888.336930763,0.20483541690928,76081.06492015,0.00074262020072742,37888.439400051,999.49688997298,998.99378066455,1173.15
310088792.15881,1.5653007764541,0.10247044473276,37891.887288652,0.20484004520721,76081.444239549,0.00074263512909637,37891.989759097,999.50817621827,999.0163531323,1173.15
320088792.15881,1.5653083816299,0.10247157236047,37895.357952614,0.20484455571367,76081.813889124,0.00074264967754531,37895.460424186,999.51917522508,999.0383511245,1173.15
330088792.15881,1.5653157976406,0.10247267198692,37898.750960579,0.20484895421533,76082.174344319,0.00074266386473804,37898.853433251,999.52990110441,999.05980286301,1173.15
340088792.15881,1.5653230329589,0.10247374486502,37902.068248659,0.20485324572384,76082.526016965,0.00074267770683867,37902.170722404,999.54036607738,999.08073278997,1173.15
350088792.15881,1.5653300949997,0.10247479209107,37905.311664937,0.20485743462437,76082.869267461,0.00074269121799067,37905.41413973,999.55058083739,999.10116229208,1173.15
360088792.15881,1.56533699032,0.10247581463439,37908.482980613,0.20486152479418,76083.204414503,0.00074270441069928,37908.585456427,999.56055483926,999.12111027889,1173.15
370088792.15881,1.5653437247785,0.10247681336098,37911.583899029,0.20486551969726,76083.531742861,0.00074271729613693,37911.686375843,999.57029653014,999.14059364459,1173.15
380088792.15881,1.5653503036637,0.10247778905246,37914.616063018,0.20486942246006,76083.851509576,0.00074272988438719,37914.718540808,999.57981353392,999.15962763694,1173.15
390088792.15881,1.5653567317957,0.10247874242116,37917.581060892,0.20487323593187,76084.163948929,0.00074274218463987,37917.683539634,999.58911279878,999.17822615218,1173.15
400088792.15881,1.5653630136079,0.10247967412221,37920.480431355,0.20487696273327,76084.46927641,0.000742754205347,37920.582911029,999.59820071507,999.19640197099,1173.15
410088792.15881,1.5653691532125,0.10248058476327,37923.315667563,0.20488060529483,76084.767691892,0.00074276595434778,37923.418148148,999.6070832098,999.21416694734,1173.15
420088792.15881,1.5653751544528,0.10248147491223,37926.088220482,0.20488416588811,76085.05938218,0.00074277743896864,37926.190701957,999.6157658223,999.23153215984,1173.15
