time,atomic_fraction_H_enclosure_2_at_interface,concentration_H_encl_1_inventory,concentration_H_encl_2_inventory,concentration_H_enclosure_1_at_interface,concentration_H_enclosure_2_at_interface,concentration_ratio_H2,mass_conservation_sum_encl1_encl2,pressure_H2_enclosure_1,pressure_H2_enclosure_1_at_interface,temperature
0,0.25822779471491,0.01889366611047,6275.580981059,0.037787332220941,12551.161962118,0.00033729062099593,6275.5998747251,200,200,1273.15
0.001,0.25822478370168,0.018927602670659,6275.5766776521,0.037860421805945,12551.01561182,0.00033794499063561,6275.5956052548,200.35923742899,200.38684702364,1273.15
0.0022,0.25822458488883,0.018961619234923,6275.5763009454,0.037921058245334,12551.005948522,0.00033848636638709,6275.5952625646,200.71932174577,200.70778229917,1273.15
0.00364,0.25823049658196,0.019002452075618,6275.5846218955,0.037993884151254,12551.293286366,0.00033913253422376,6275.6036243476,201.15156015261,201.09323372767,1273.15
0.005368,0.25824659807006,0.019051492115554,6275.6077750024,0.038081434961982,12552.075899195,0.00033990341388117,6275.6268264945,201.67067634371,201.55662082373,1273.15
0.0074416,0.25827834288009,0.019110394917778,6275.6543119834,0.038186714944216,12553.618855687,0.00034082216424235,6275.6734223784,202.29419537786,202.11384450715,1273.15
0.00992992,0.25833311499315,0.019181156870682,6275.7363660786,0.038313365284523,12556.281054242,0.00034191628501896,6275.7555472355,203.04325014035,202.78417677388,1273.15
0.012915904,0.25842081131743,0.019266183276414,6275.871108064,0.03846579394148,12560.543534084,0.00034321833822903,6275.8903742473,203.94330209675,203.5909479747,1273.15
0.0164990848,0.25855446066311,0.019368373927687,6276.0826436588,0.038649344186764,12567.039560531,0.00034476695881009,6276.1020120327,205.02504717127,204.56243886593,1273.15
0.02079890176,0.25875085560236,0.019491226943309,6276.40450866,0.03887050141647,12576.585336553,0.0003466081512794,6276.423999887,206.32551490372,205.73297521612,1273.15
0.025958682112,0.25903115080532,0.019638964715271,6276.8829492226,0.039137146703425,12590.209084893,0.0003487969582815,6276.9025881873,207.88940166977,207.14426980233,1273.15
0.0321504185344,0.25942137293857,0.019816686491861,6277.581229106,0.039458866846365,12609.175831679,0.00035139959681871,6277.6010457925,209.77068585836,208.84706343201,1273.15
0.03958050224128,0.25995280286655,0.020030552831223,6278.5852890873,0.039847331844266,12635.005983329,0.00035449614814554,6278.6053196401,212.03458041553,210.90312283112,1273.15
0.048496602689536,0.26066224095887,0.020288007922761,6280.0112041086,0.040316751774049,12669.488221806,0.00035818384873935,6280.0314921165,214.75988624059,213.38765879697,1273.15
0.059195923227443,0.2615922511327,0.02059804664003,6282.0150461118,0.0408844261127,12714.691366305,0.00036258096014622,6282.0356441584,218.04181908999,216.39223363878,1273.15
0.072035107872932,0.26279157674926,0.020971534289895,6284.8059606111,0.041571400066623,12772.984587898,0.00036783110948358,6284.8269321454,221.99539430067,220.02823498392,1273.15
0.087442129447518,0.26431527013827,0.021421666827155,6288.6623162814,0.042403558235463,12847.04370507,0.00037411119174154,6288.6837379482,226.76029841857,224.43266429888,1273.15
0.10593055533702,0.26622781824738,0.021964144870993,6293.9569194565,0.043411424006867,12940.003105914,0.00038162502149338,6293.9788836014,232.50273125999,229.76707513006,1273.15
0.12811666640443,0.26860410103702,0.022618107867153,6301.1850819691,0.044632820299026,13055.502330905,0.00039062275344934,6301.207700077,239.42529453952,236.23165582614,1273.15
0.15473999968531,0.2715320227718,0.023406547094629,6311.0029374519,0.046113230356847,13197.813966823,0.00040139739125425,6311.026343999,247.77136377633,244.06713915248,1273.15
0.18668799962237,0.27511511530494,0.024357146385329,6324.2761588979,0.047907611275969,13371.970179397,0.00041429225773847,6324.3005160443,257.83398778103,253.56440087305,1273.15
0.22502559954685,0.27947466348878,0.025503227078352,6342.1413480911,0.050082314533136,13583.866018872,0.00042970726541545,6342.1668513181,269.96589152403,265.07462469331,1273.15
0.27103071945622,0.28475106023704,0.02688488638139,6366.0826911086,0.052717408304093,13840.325282821,0.00044810614821934,6366.109575995,284.59152632629,279.0215937757,1273.15
0.32623686334746,0.29110426272425,0.028550368591255,6398.0265776436,0.055909484990525,14149.122689712,0.00047002475915291,6398.0551280122,302.22158499385,295.91655035939,1273.15
0.39248423601695,0.29871315022908,0.030557716328673,6440.4563991105,0.059775053333055,14518.952666884,0.00049608069590941,6440.4869568268,323.47048105967,316.37614946487,1273.15
0.47198108322034,0.3077732087468,0.032976758809469,6496.5482158544,0.064454636104531,14959.316811138,0.0005269850329911,6496.5811926132,349.07739574369,341.14414707907,1273.15
0.56737729986441,0.31849142050737,0.03589150565689,6570.3248008782,0.070117718889601,15480.275493761,0.0005635577626306,6570.3606923839,379.93161779228,371.11759295219,1273.15
0.6818527598373,0.33107665149127,0.039403027543636,6666.8197631078,0.076968720889173,16091.980645733,0.0006067496276428,6666.8591661354,417.1030366817,407.37843274641,1273.15
0.81922331180476,0.34572319589695,0.043632921304742,6792.2334198001,0.085254193255573,16803.875936571,0.00065767451904589,6792.2770527214,461.87882277185,451.23160723333,1273.15
0.98406797416571,0.36258441172116,0.048727482463082,6954.0448610971,0.095271514654961,17623.415331707,0.00071765882816683,6954.0935885796,515.80759581729,504.25107598448,1273.15
1.1818815689988,0.3817326476339,0.054862744921753,7161.0144517239,0.10737945658942,18554.115338246,0.00078831733332496,7161.0693144689,580.75277292373,568.33573728667,1273.15
1.4192578827986,0.40310106667459,0.062250584290126,7422.9581340101,0.1220110845642,19592.727345718,0.00087166948002353,7423.0203845944,658.95717566035,645.77771116951,1273.15
1.7041094593583,0.42640277281982,0.071146087339715,7750.0886030594,0.13968942134666,20725.306772907,0.0009703156464941,7750.1597491468,753.12103986307,739.34524157412,1273.15
2.04593135123,0.45102395714061,0.081856330159481,8151.5989833524,0.16104598210969,21922.019436819,0.0010877012182796,8151.6808396825,866.49493730726,852.38079877172,1273.15
2.456117621476,0.47589421334009,0.094750566307534,8633.0486116274,0.18684163406493,23130.838239395,0.0012285079495917,8633.1433621938,1002.9876229794,988.91148479326,1273.15
2.9483411457712,0.49935739097497,0.11027160910751,9192.1165711092,0.21798825408004,24271.265988339,0.001399222815858,9192.2268427183,1167.2865230365,1153.7636624119,1273.15
3.5390093749255,0.51911982216433,0.12894786593213,9812.7148312736,0.25556821993101,25231.818956297,0.0016089130271919,9812.8437791395,1364.9851244135,1352.6661180351,1273.15
4.2478112499105,0.53249154859784,0.15140477932308,10459.060796149,0.30084579972359,25881.751719598,0.0018700237361762,10459.212200928,1602.7040854626,1592.3103433953,1273.15
5.0983734998927,0.53758354054658,0.17837162959402,11076.67954775,0.35525311223303,26129.247988267,0.0021977305030519,11076.857919379,1888.1632453023,1880.2762267306,1273.15
6.1190481998712,0.83272402380351,0.20739057163759,13725.971979521,0.40717677021909,40474.551176969,0.0020239136171058,13726.179370092,2195.3449417915,2155.0966754591,1273.15
7.3438578398454,1.1682720027121,0.24477240218845,18338.501930048,0.47972156873371,56783.860691819,0.002013153020008,18338.74670245,2591.0524803104,2539.0602645818,1273.15
8.8136294078145,1.2623238184477,0.2928639450493,22660.601515109,0.57970870886064,61355.249195649,0.0023403669827552,22660.894379054,3100.1283005314,3068.2701042303,1273.15
10.577355289377,1.3299996369285,0.34913248272719,26590.083484573,0.69392801801228,64644.632352912,0.0027292805984877,26590.432617056,3695.7621743269,3672.8076698028,1273.15
12.693826347253,1.3945282013006,0.41629499920683,30034.773946145,0.82955227647278,67781.043224214,0.0031863218010991,30035.190241144,4406.7148934756,4390.6369024542,1273.15
15.233591616703,1.4550703503612,0.49663318298502,32901.546932822,0.99127404241806,70723.694379308,0.0037274451759888,32902.043566005,5257.1394040864,5246.5944757472,1273.15
18.281309940044,1.5113710482719,0.59277424303222,35195.85400463,1.1842811196037,73460.189801255,0.0043694702076289,35196.446778873,6274.84617931,6268.138288669,1273.15
21.938571928053,1.5635414489784,0.70792939545283,37016.339689152,1.4150331337222,75995.932127593,0.0051330020310442,37017.047618547,7493.8277337348,7489.4577126988,1273.15
26.327286313664,1.6116975343234,0.84597705383142,38496.308012731,1.6913814525866,78336.558655787,0.0060430935779205,38497.153989785,8955.1392396271,8952.1083028417,1273.15
31.593743576396,1.6559204884005,1.0115578790327,39750.511051431,2.0226939758232,80486.015338705,0.0071296788430587,39751.52260931,10707.90468211,10705.672281899,1273.15
37.913492291676,1.6962869918889,1.2102156696273,40851.336983793,2.4201122051231,82448.029240758,0.0084284043453154,40852.547199463,12810.808262951,12809.119156509,1273.15
45.497190750011,1.7328992446816,1.4485827244651,41832.722920009,2.896924904781,84227.567787747,0.0099818285820087,41834.171502733,15334.056566845,15332.783419813,1273.15
54.597628900013,1.7658983369486,1.7346070372851,42707.305732369,3.4690355324289,85831.488667387,0.011840919421639,42709.040339407,18361.783543151,18360.838559048,1273.15
65.518154680015,1.7954640178678,2.0778228248456,43481.71589854,4.1555147343125,87268.528588466,0.014066822252854,43483.793721365,21994.914197135,21994.221290963,1273.15
78.622785616018,1.8218072180254,2.4896709118848,44163.43318986,4.97924634444,88548.939832125,0.01673292753444,44165.922860772,26354.556043574,26354.050692579,1273.15
94.348342739222,1.8451601623553,2.9838803380538,44761.293486037,5.9676911634808,89684.00969128,0.019927317077465,44764.277366375,31586.038629107,31585.670714133,1273.15
113.21901128707,1.8692063140338,3.5769191428619,45353.46594071,7.1537749199512,90852.772893615,0.023733739887263,45357.042859853,37863.685342462,37863.349961429,1273.15
135.86381354448,1.8869579917272,4.2885769204639,45818.244039253,8.5771202750458,91715.593187898,0.028321738626984,45822.532616174,45396.98008199,45396.802425193,1273.15
163.03757625338,1.9024541494148,5.1425527659211,46205.881867391,10.285080750497,92468.783932307,0.033822844790951,46211.024420157,54436.79099496,54436.659832776,1273.15
193.03757625338,1.9146644186195,6.0853457349627,46510.043810773,12.170673226409,93062.264066999,0.039895856678782,46516.129156508,64416.780728335,64416.684169432,1273.15
223.03757625338,1.9237066727512,7.0281375097073,46734.594877072,14.056260925132,93501.762829071,0.045968455373729,46741.623014581,74396.757819411,74396.683221489,1273.15
253.03757625338,1.9309717343186,7.9709282935219,46913.684634676,15.941844660136,93854.881146557,0.052036747177973,46921.655562969,84376.724420939,84376.661294451,1273.15
283.03757625338,1.9369267850458,8.9137189622287,47060.63326455,17.827427934708,94144.326387152,0.058102071083796,47069.546983512,94356.689803986,94356.636930452,1273.15
300,1.9394518952152,9.4467867122934,47124.576651975,18.893565708466,94267.059366936,0.061536663970091,47134.023438687,99999.509434099,99999.468594378,1273.15
