time,atomic_fraction_H_enclosure_2_at_interface,concentration_H_encl_1_inventory,concentration_H_encl_2_inventory,concentration_H_enclosure_1_at_interface,concentration_H_enclosure_2_at_interface,concentration_ratio_H2,mass_conservation_sum_encl1_encl2,pressure_H2_enclosure_1,pressure_H2_enclosure_1_at_interface,temperature
0,0.6,0.08727245717386,15164.76,0.18181761911221,29163,0.0010646818914948,15164.847272457,1000,1000,1323
0.0001,0.59930983366304,0.6642126611672,15164.372649529,29.317719564989,29129.454465192,0.17177660327124,15165.03686219,7610.7936303889,161247.95665098,1323
0.00021,0.59855438170579,1.2999841805998,15163.948658013,61.105237033703,29092.73572281,0.35824996132283,15165.248642193,14895.698169814,336079.84381311,1323
0.000331,0.59772927786802,1.9941993495871,15163.485574922,95.815660334469,29052.631550775,0.56213905442016,15165.479774272,22850.271599599,526987.76280497,1323
0.0004641,0.59682927047721,2.7512270334837,15162.980452797,133.66689370797,29008.886691545,0.78479878991667,15165.73167983,31524.573990198,735170.19065945,1323
0.00061051,0.59584858531525,3.5758610520252,15162.430050902,174.89851966105,28961.220489248,1.0277268517212,15166.005911954,40973.534696079,961944.83524238,1323
0.000771561,0.59478107604633,4.4731947276447,15161.830919654,219.76516824068,28909.334201232,1.2925275685713,15166.304114382,51255.514884077,1208712.1661463,1323
0.0009487171,0.59362030062469,5.448553376846,15161.179443506,268.5330899814,28852.914711863,1.5808947720295,15166.627996883,62431.533994644,1476936.5658434,1323
0.00114358881,0.5923595774442,6.5074434038766,15160.471872458,321.47759763654,28791.637261675,1.8946000009164,15166.979315862,74564.686438389,1768132.2591632,1323
0.001357947691,0.59099204306956,7.655499614778,15159.70435446,378.88042755575,28725.168253396,2.2354804707421,15167.359854075,87719.537901025,2083848.8008246,1323
0.0015937424601,0.58951072143412,8.8984222689339,15158.87297425,441.02659053225,28653.168615305,2.605424226761,15167.771396519,101961.4040568,2425653.7550416,1323
0.00185311670611,0.58790860997406,10.241899129366,15157.973801692,508.20047353251,28575.297987789,3.0063509797052,15168.215700822,117355.45739205,2795111.2549707,1323
0.002138428376721,0.58617878657028,11.691509137769,15157.002951803,580.68102305742,28491.219921248,3.440187478593,15168.69446094,133965.62347817,3193755.511115,1323
0.0024522712143931,0.58431454057394,13.252604849457,15155.956658281,658.73586668163,28400.608244596,3.9088363631873,15169.20926313,151853.23386799,3623058.4796905,1323
0.0027974983358324,0.58230953088233,14.930171028156,15154.831362233,742.61424267644,28303.154748535,4.4141374403342,15169.761533261,171075.40582263,4084390.975432,1323
0.0031772481694157,0.58015797370275,16.728657084998,15153.62381755,832.53862189208,28198.578311822,4.9578203215587,15170.352474635,191683.12233574,4578976.5918025,1323
0.0035949729863572,0.57785486213202,18.651781487954,15152.331214146,928.6949281899,28086.635573927,5.5414473860481,15170.982995634,213718.99098471,5107837.9132044,1323
0.0040544702849929,0.57539621887928,20.702306962661,15150.951319798,1031.2212984605,27967.133218628,6.1663461255625,15171.653626761,237214.66809876,5671734.6948874,1323
0.0045599173134922,0.57277938227334,22.881786336834,15149.482640663,1140.1953748323,27839.941875396,6.8335301179997,15172.364427,262187.94655053,6271093.9698786,1323
0.0051159090448415,0.57000332402877,25.190280329361,15147.924599624,1255.62019412,27705.011564419,7.5436082004136,15173.114879953,288639.52207944,6905932.4407116,1323
0.0057274999493256,0.56706899501073,27.626050528591,15146.277730346,1377.4088367387,27562.388502496,8.2966819113047,15173.903780874,316549.47532365,7575772.0481898,1323
0.0064002499442582,0.56397969235967,30.185233307841,15144.543883322,1505.3681224818,27412.232947142,9.0922319908364,15174.72911663,345873.53542376,8279550.2978881,1323
0.007140274938684,0.56074143776934,32.861503530401,15142.726438182,1639.1817957761,27254.837582779,9.9289957116976,15175.587941712,376539.22663064,9015527.7787711,1323
0.0079543024325524,0.55736335245624,35.645740598529,15140.830514135,1778.3938281397,27090.645746135,10.804838102307,15176.476254733,408442.04177174,9781196.3264249,1323
0.0088497326758076,0.55385800949923,38.525713630519,15138.863167724,1922.3926770438,26920.26855171,11.716621741947,15177.388881354,441441.8348938,10573192.446533,1323
0.0098347059433884,0.55024173895751,41.4858071384,15136.833564066,2070.3975698093,26744.49972203,12.660081747841,15178.319371204,475359.67797668,11387221.876069,1323
0.010918176537727,0.54653485583818,44.506813227363,15134.753104799,2221.4481135907,26564.326668015,13.629714780643,15179.259918026,509975.4798779,12218002.438035,1323
0.0121099941915,0.54276177611374,47.565820584665,15132.635493197,2374.3987448348,26380.936128008,14.618693236069,15180.201313781,545026.71432646,13059233.513389,1323
0.01342099361065,0.53895098233242,50.636233720784,15130.496714866,2527.9196913542,26195.712496267,15.618818034047,15181.132948586,580208.64039509,13903601.332466,1323
0.014863092971715,0.53513479889316,53.687957224907,15128.354911621,2680.5061851191,26010.226900202,16.620525205238,15182.042868846,615176.41376766,14742829.645486,1323
0.016449402268886,0.53134893893873,56.68777818669,15126.230127185,2830.4975833628,25826.215177117,17.612962314468,15182.917905371,649549.46866867,15567784.888966,1323
0.018194342495775,0.52763179133214,59.599974307981,15124.143907004,2976.1077741888,25645.543217699,18.584150036138,15183.743881312,682918.48583166,16368643.417072,1323
0.020113776745353,0.52402342854706,62.387164519026,15122.118741442,3115.4677074017,25470.15874453,19.521241228871,15184.505905961,714855.13917342,17135125.421915,1323
0.022225154419888,0.52056433543973,65.011402326814,15120.177352304,3246.6800619476,25302.029524048,20.410884018589,15185.188754631,744924.62378252,17856795.605402,1323
0.024547669861877,0.51729388504433,67.435489429376,15118.341837399,3367.8849266538,25143.06928258,21.239686299877,15185.777326829,772700.70779644,18523424.424424,1323
0.027102436848064,0.51424861994369,69.62445902651,15116.632705963,3477.3339657899,24995.054172363,21.994766788048,15186.25716499,797782.72872284,19125396.002705,1323
0.029912680532871,0.51146043412767,71.547146732575,15115.067858248,3573.4689647359,24859.534400775,22.664363108246,15186.61500498,819813.59353779,19654140.133309,1323
0.033003948586158,0.50895478648205,73.1777355982,15113.661582851,3654.9990810949,24737.74739696,23.238452114525,15186.839318449,838497.48211419,20102557.161081,1323
0.036404343444774,0.50674910723686,74.497135616814,15112.423662351,3720.9698200498,24630.540357248,23.70932433619,15186.920797968,853615.65411644,20465397.348281,1323
0.040144777789251,0.50485157551018,75.494043604925,15111.358687212,3770.8160284078,24538.310827672,24.072046449773,15186.852730817,865038.59349954,20739552.342728,1323
0.044259255568176,0.50326062749277,76.222996666806,15110.465779756,3803.3305920238,24460.982799286,24.317959204239,15186.688776423,873391.20651728,20918382.996076,1323
0.048785181124994,0.5019650404865,76.764583272541,15109.738641328,3817.8103666261,24398.010792846,24.442022712746,15186.503224601,879596.90558058,20998022.002862,1323
0.053763699237493,0.50094460266403,77.147373556177,15109.165928195,3814.6142648696,24348.412412485,24.446421972549,15186.313301751,883983.05782187,20980443.388798,1323
0.059240069161242,0.50017150612827,77.393189054371,15108.732033388,3794.7948675782,24310.836055365,24.338194486876,15186.125222443,886799.70245586,20871436.366331,1323
0.065264076077367,0.49961240966636,77.520579145211,15108.418244409,3759.8026154481,24283.661171834,24.127257727466,15185.938823555,888259.38509761,20678978.38398,1323
0.071890483685103,0.49923095989215,77.547232580644,15108.2041582,3711.3009737465,24265.120805558,23.825111767151,15185.751390781,888564.78999047,20412218.529031,1323
0.079179532053614,0.49899046992631,77.490050859635,15108.069184531,3651.0133287961,24253.431790768,23.443735834742,15185.559235391,887909.58074278,20080635.455593,1323
0.087197485258975,0.49885641725129,77.364452998268,15107.993947905,3580.5948470536,24246.916160499,22.994656530275,15185.358400903,886470.4341273,19693332.607352,1323
0.096017233784872,0.49879844650811,77.1835954494,15107.961411608,3501.536031687,24244.098492527,22.488245817405,15185.145007057,884398.10163289,19258507.777104,1323
0.10571895716336,0.49879164988474,76.957818285271,15107.957596319,3415.1058885304,24243.768142648,21.933306771769,15184.915414604,881811.06362067,18783140.518537,1323
0.1163908528797,0.49881703234687,76.694438641621,15107.971841217,3322.337861026,24245.00185722,21.336966951358,15184.666279858,878793.16253046,18272914.788174,1323
0.12812993816767,0.49886122060597,76.397891842436,15107.996640641,3224.0547221366,24247.149627553,20.704848557759,15184.394532483,875395.21994023,17732355.851315,1323
0.14104293198443,0.49891560490723,76.07013983686,15108.027162425,3120.9221987715,24249.792976516,20.04144008211,15184.097302262,871639.71658683,17165125.217295,1323
0.15524722518287,0.49897517776431,75.711223576388,15108.060596148,3013.5172796096,24252.688515234,19.350569074133,15183.771819724,867527.12170759,16574396.333668,1323
0.17087194770116,0.49903733724584,75.319831758735,15108.095481487,2902.3968809878,24255.709776834,18.635875691789,15183.415313246,863042.40991732,15963232.249767,1323
0.18805914247128,0.49910086163472,74.893786819633,15108.131132752,2788.1555038996,24258.797379756,17.901208811058,15183.024919571,858160.62988158,15334902.731175,1323
0.20696505671841,0.499165164982,74.430395767645,15108.167221072,2671.4653330618,24261.92284395,17.150900767663,15182.597616839,852850.9243113,14693104.805278,1323
0.22776156239025,0.49922984539569,73.926660595706,15108.203520875,2553.0971008032,24265.066635457,16.389910736493,15182.13018147,847078.94093589,14042077.513003,1323
0.25063771862927,0.49929446928077,73.379376199899,15108.239788795,2433.9235003359,24268.207679392,15.623850424132,15181.619164995,840807.95449264,13386620.68187,1323
0.2758014904922,0.499358507391,72.785157038032,15108.275727782,2314.9083990909,24271.32025174,14.858915410368,15181.06088482,833999.17219052,12732035.599158,1323
0.30348163954142,0.49942131307216,72.150504450697,15108.310974889,2197.1357841507,24274.372921872,14.102070696923,15180.46147934,826727.08878773,12084284.212273,1323
0.33392980349556,0.49948210055891,71.518394436607,15108.345089093,2081.8183653883,24277.327497666,13.361105616633,15179.863483529,819484.13912686,11450036.446157,1323
0.36742278384512,0.49954010253873,70.908594748171,15108.377639724,1970.0257060036,24280.146683895,12.642886527044,15179.286234472,812496.8294053,10835174.916617,1323
0.40426506222963,0.49959465879596,70.328005111626,15108.408256219,1862.7063941294,24282.798390778,11.953498690817,15178.73626133,805844.21923083,10244916.874529,1323
0.44479156845259,0.49964524428816,69.780885617484,15108.436643876,1760.6631908234,24285.257098626,11.298087451334,15178.217529494,799575.12229168,9683677.519376,1323
0.48937072529785,0.49969147134056,69.268385403582,15108.46258509,1664.5283972853,24287.503964508,10.680701222994,15177.730970493,793702.70583294,9154934.5185189,1323
0.53840779782764,0.49973309309596,68.788970297883,15108.485941282,1574.7353975953,24289.526989929,10.104109895662,15177.27491158,788209.39074564,8661071.4917757,1323
0.5923485776104,0.49977001075408,68.338484822936,15108.506656969,1491.4978302802,24291.321372702,9.569672075933,15176.845141792,783047.56203662,8203263.4546806,1323
0.65168343537144,0.49980227747289,67.910165873628,15108.524761947,1414.8022364036,24292.88969657,9.0772887057495,15176.434927821,778139.72555328,7781436.3828539,1323
0.71695177890858,0.49983009270783,67.494744456244,15108.54036812,1344.4178536524,24294.241656064,8.6254665964865,15176.035112576,773379.67374728,7394321.0796457,1323
0.78874695679944,0.49985378456777,67.080690269963,15108.553659591,1279.9247218127,24295.393198916,8.2114993247899,15175.634349861,768635.2881795,7039607.7567309,1323
0.86772165247939,0.49987379204674,66.669029880245,15108.564882694,1220.7480986358,24296.365662432,7.8316883843229,15175.233912574,763918.33161555,6714135.3219592,1323
0.95459381772733,0.49989061500641,66.279563559161,15108.574317917,1166.2357244816,24297.183342387,7.4818392901857,15174.853881476,759455.6828751,6414316.3362063,1323
1.0501531995001,0.49990475226614,65.91420568983,15108.58224516,1115.7319882567,24297.870483896,7.1577376807384,15174.49645085,755269.27766591,6136544.9272993,1323
1.1552685194501,0.49991666946038,65.569268991397,15108.588925691,1068.6163698101,24298.449719122,6.8553958908361,15174.158194683,751316.86576411,5877408.2238455,1323
1.2708953713951,0.49992678108328,65.23883043771,15108.594592071,1024.3348037605,24298.941194553,6.5712539935946,15173.833422508,747530.57895166,5633858.8568161,1323
1.3980849085346,0.49993543910708,64.914698475668,15108.599441761,982.42039354401,24299.3620178,6.3023124952961,15173.514140236,743816.55539214,5403328.887162,1323
1.537993399388,0.4999429282072,64.587779313817,15108.603634446,942.5017819401,24299.726025511,6.0461858346367,15173.19141376,740070.59506928,5183775.8438495,1323
1.6918927393268,0.49994946760026,64.265128321398,15108.607293066,904.29977192086,24300.043872711,5.8010805048182,15172.872421387,736373.54100587,4973664.1384726,1323
1.8611820132595,0.49995522598536,63.95576104032,15108.610512195,867.60977451475,24300.323759019,5.565682221702,15172.566273236,732828.69660596,4771868.5282052,1323
2.0474002145855,0.49996032910616,63.655719209636,15108.613362292,832.29123761517,24300.571796205,5.3390879627905,15172.269081501,729390.70665587,4577615.9740686,1323
2.252240236044,0.49996486948737,63.360636158968,15108.615895156,798.25108160051,24300.792481434,5.1206995775503,15171.976531315,726009.53623597,4390394.5365596,1323
2.4775642596484,0.49996891590514,63.069807568788,15108.61814925,765.4280093881,24300.989157569,4.9101230347208,15171.687956819,722677.11499337,4209867.08068,1323
2.7254206856133,0.49997252165253,62.785535949224,15108.620154329,733.77883716837,24301.164414921,4.7070806588416,15171.405690278,719419.82593827,4035796.0947422,1323
2.9980627541746,0.499975731118,62.509981269549,15108.621935136,703.26832519097,24301.32041099,4.5113458427062,15171.131916406,716262.41879519,3867987.7595193,1323
3.2979690295921,0.49997858405047,62.241414984164,15108.623513795,673.86347151784,24301.459077773,4.3227064102035,15170.864928779,713185.08725118,3706260.5637904,1323
3.6278659325513,0.49998111712955,61.980441309112,15108.624910686,645.53186335709,24301.582198082,4.1409540255178,15170.605351995,710194.75463648,3550436.2366482,1323
3.9907525258064,0.49998336413641,61.727265750868,15108.626144544,618.24188642646,24301.69141385,3.9658855292474,15170.353410295,707293.77572008,3400340.8990023,1323
4.389927778387,0.49998535571761,61.48193637312,15108.627232322,591.96326844264,24301.788214654,3.7973064200458,15170.109168695,704482.70123344,3255808.0527791,1323
4.8290205562257,0.49998711938696,61.244434757219,15108.628189188,566.66717278432,24301.873937803,3.6350314500487,15169.872623946,701761.32012888,3116679.0960704,1323
5.3120226118483,0.49998867978111,61.014708817268,15108.629028671,542.32593378767,24301.949780761,3.4788829210271,15169.643737488,699129.03558699,2982801.8672546,1323
5.8433248730331,0.49999005899475,60.792684354444,15108.62976284,518.91271503893,24302.01681744,3.328688486989,15169.422447195,696584.9974103,2854028.7655988,1323
6.4277573603365,0.49999127687688,60.57827111827,15108.630402474,496.40125625943,24302.076012601,3.1842795258763,15169.208673592,694128.17147555,2730215.3591236,1323
7.0706330963701,0.49999235126286,60.371368870424,15108.630957182,474.7657283265,24302.128233131,3.0454902056885,15169.002326052,691757.40921508,2611219.5872145,1323
7.7777964060071,0.49999329816288,60.171870144168,15108.631435512,453.98065359056,24302.174257207,2.9121569700482,15168.803305657,689471.47923538,2496901.3223652,1323
8.5556760466078,0.49999413192889,59.97964643472,15108.631845037,434.02085424092,24302.214782404,2.7841182041283,15168.611491472,687268.90908127,2387122.0861883,1323
9.4113436512686,0.49999486540933,59.794495107682,15108.632192435,414.86141466498,24302.25043322,2.6612139907041,15168.426687543,685147.37689306,2281744.8423904,1323
10.352578016395,0.49999551009254,59.616019501243,15108.632483571,396.47765687762,24302.281768048,2.5432859503627,15168.248503072,683102.33757346,2180633.8616333,1323
11.387935818035,0.49999607623836,59.443418785752,15108.63272356,378.84512993096,24302.309285566,2.4301771716778,15168.076142346,681124.61492097,2083654.6632874,1323
12.526829399839,0.4999965729981,59.275179107231,15108.632916832,361.93961224061,24302.333430573,2.3217322244887,15167.90809594,679196.86263841,1990674.0282263,1323
13.779612339822,0.49999700852371,59.108681511065,15108.633067184,345.73712448836,24302.354599295,2.2177972412441,15167.741748695,677289.07177795,1901560.0697917,1323
15.157673573805,0.49999739006743,58.939769446283,15108.633177832,330.21395064403,24302.373144228,2.1182200506187,15167.572947278,675353.61504565,1816182.3494138,1323
16.673540931185,0.49999772407245,58.762341505669,15108.63325145,315.34666488665,24302.389378542,2.0228503491396,15167.395592955,673320.58026744,1734412.0246786,1323
18.340995024304,0.49999801625555,58.568046210858,15108.633290212,301.11216231836,24302.403580101,1.9315398972871,15167.201336423,671094.27312423,1656122.0182546,1323
20.175194526734,0.49999827168206,58.346150877696,15108.633295824,287.48769102394,24302.415995106,1.8441427243556,15166.979446701,668551.71456284,1581187.1942208,1323
22.192813979407,0.49999849483354,58.083636051668,15108.633269547,274.45088114365,24302.426841384,1.7605153142666,15166.716905598,665543.72287188,1509484.5179678,1323
24.412195377348,0.499998689668,57.765535025638,15108.633212226,261.97976037894,24302.436311313,1.6805167044516,15166.398747252,661898.80400136,1440893.1414797,1323
26.853514915083,0.49999885967174,57.375501550031,15108.633124303,250.052730094,24302.444574345,1.6040083320563,15166.008625853,657429.65659521,1375294.2718917,1323
29.538966406591,0.49999900790203,56.896555569749,15108.633005827,238.64844788952,24302.451779078,1.5308532802717,15165.529561396,651941.71691995,1312570.5256444,1323
32.49296304725,0.49999913702065,56.311932830823,15108.632856458,227.74552388329,24302.458054889,1.4609143297202,15164.944789289,645242.89397102,1252604.2580215,1323
35.742359351975,0.49999924932112,55.605953058646,15108.632675467,217.32190541967,24302.463513253,1.394050011267,15164.238628526,637153.51737915,1195274.1790417,1323
39.316695287173,0.49999934675558,54.764823776157,15108.632461732,207.35382990369,24302.468249055,1.3301078885292,15163.397285508,627515.54785558,1140449.5940282,1323
43.24846481589,0.49999943097026,53.777310833896,15108.632213737,197.81430209542,24302.47234231,1.2689147899757,15162.409524571,616200.26037267,1087982.0287017,1323
47.573411297479,0.49999950335648,52.635228734572,15108.631929578,188.67121354186,24302.475860642,1.2102647454713,15161.267158312,603113.86248372,1037694.8860243,1323
52.330852427227,0.4999995651191,51.333729383794,15108.631606979,179.88543727642,24302.478862614,1.1539067641855,15159.965336363,588200.80293522,989372.96701375,1323
57.56403766995,0.49999961735538,49.871392629782,15108.631243309,171.40942394748,24302.481401558,1.0995358290308,15158.502635939,571444.80910433,942754.74942667,1323
63.320541436945,0.49999966113,48.25014250646,15108.630835594,163.18690083193,24302.483529224,1.0467909657855,15156.8809781,552867.92728132,897530.73232806,1323
69.652695580639,0.49999969752941,46.475027705875,15108.630380512,155.15416493983,24302.485298417,0.99526353784063,15155.105408218,532528.00724162,853350.54818904,1323
76.618065138703,0.49999972768278,44.553913375479,15108.629874377,147.24316510289,24302.486764022,0.94451701674351,15153.183787753,510515.17074535,809839.91442554,1323
