time,atomic_fraction_H_enclosure_2_at_interface,concentration_H_encl_1_inventory,concentration_H_encl_2_inventory,concentration_H_enclosure_1_at_interface,concentration_H_enclosure_2_at_interface,concentration_ratio_H2,mass_conservation_sum_encl1_encl2,pressure_H2_enclosure_1,pressure_H2_enclosure_1_at_interface,temperature
0,0.2,0.045871921320685,4860.5,0.09174384264137,9721,0.00093051087853554,4860.5458719213,600,600,1573.15
0.001,0.19999405433495,0.046678933507408,4860.4991657604,0.36292901087398,9720.7110109502,0.0036810580733334,4860.5458446939,610.55563617336,2373.5370162727,1573.15
0.0022,0.19999362000484,0.046716702775816,4860.4991048193,0.36294468894205,9720.6899003351,0.0036812210876077,4860.5458215221,611.04965430889,2373.6395500294,1573.15
0.00364,0.19999310941623,0.046758634853898,4860.4990331783,0.36293601043373,9720.6650831761,0.0036811377635524,4860.5457918131,611.59812156566,2373.5827930325,1573.15
0.005368,0.19999251129029,0.046807022402835,4860.4989492548,0.36293317339758,9720.6360112647,0.0036811144930688,4860.5457562772,612.23102571544,2373.5642389624,1573.15
0.0074416,0.19999181392608,0.046862995688497,4860.4988514072,0.36292986602062,9720.6021158774,0.0036810873653,4860.5457144029,612.96315051925,2373.5426088876,1573.15
0.00992992,0.19999100459268,0.046927562136349,4860.4987378491,0.36292602675319,9720.5627782273,0.0036810558730929,4860.5456654112,613.80767299827,2373.5175002766,1573.15
0.012915904,0.19999006988579,0.04700169921491,4860.4986066997,0.36292159178227,9720.5173467986,0.003681019492522,4860.5456083989,614.77737833992,2373.4884957955,1573.15
0.0164990848,0.19998899593786,0.047086366059515,4860.4984560133,0.36291649491331,9720.4651475595,0.0036809776797532,4860.5455423793,615.88481193547,2373.4551625353,1573.15
0.02079890176,0.19998776859398,0.047182497214886,4860.4982838037,0.36291066850276,9720.4054925102,0.0036809298788805,4860.545466301,617.14219753351,2373.4170581108,1573.15
0.025958682112,0.19998637351324,0.047290998483407,4860.4980880589,0.36290404394587,9720.3376846108,0.003680875525937,4860.5453790573,618.56138293578,2373.3737338503,1573.15
0.0321504185344,0.1999847961478,0.047412753759287,4860.4978667374,0.36289655159502,9720.2610167637,0.0036808140482548,4860.5452794911,620.1539293874,2373.3247342621,1573.15
0.03958050224128,0.19998302156351,0.047548647345773,4860.4976177439,0.36288811993612,9720.1747630942,0.0036807448577575,4860.5451663912,621.93140348362,2373.2695916477,1573.15
0.048496602689536,0.19998103409805,0.0476996018518,4860.4973388807,0.36287867400032,9720.0781623356,0.0036806673379905,4860.5450384825,623.90587285418,2373.2078157146,1573.15
0.059195923227443,0.1999788168979,0.047866626742471,4860.497027783,0.36286813319997,9719.9703953222,0.0036805808264259,4860.5448944098,626.0905411985,2373.1388794239,1573.15
0.072035107872932,0.19997635141593,0.048050868504397,4860.4966818484,0.36285640896873,9719.8505605711,0.0036804845951403,4860.5447327169,628.50040444322,2373.0622035561,1573.15
0.087442129447518,0.19997361696473,0.048253652402587,4860.4962981741,0.36284340269854,9719.7176525707,0.0036803778339886,4860.5445518265,631.15279691799,2372.9771432198,1573.15
0.10593055533702,0.19997059039245,0.048476509178357,4860.4958735115,0.36282900400727,9719.5705460252,0.0036802596360018,4860.5443500207,634.06774056134,2372.8829765214,1573.15
0.12811666640443,0.19996724588846,0.048721186555519,4860.4954042388,0.36281309005561,9719.4079864086,0.0036801289922292,4860.5441254253,637.26809542048,2372.7789000981,1573.15
0.15473999968531,0.19996355486719,0.048989651568839,4860.4948863449,0.36279552480173,9719.2285843198,0.003679984785226,4860.5438759964,640.77959010731,2372.6640242435,1573.15
0.18668799962237,0.19995948585432,0.049284092033881,4860.4943154132,0.36277615847695,9719.0308099493,0.0036798257847577,4860.5435995052,644.63084102376,2372.5373694781,1573.15
0.22502559954685,0.19995500431805,0.049606923204522,4860.493686598,0.36275482676914,9718.812984879,0.0036796506410407,4860.5432935212,648.85343944143,2372.397861209,1573.15
0.27103071945622,0.19995007242789,0.049960801343602,4860.4929945907,0.36273134966938,9718.5732703577,0.0036794578752277,4860.542955392,653.48212900435,2372.2443221872,1573.15
0.32623686334746,0.19994464875236,0.050348642848864,4860.492233577,0.36270553003345,9718.3096526085,0.0036792458675562,4860.5425822198,658.55505589421,2372.0754630997,1573.15
0.39248423601695,0.19993868791315,0.050773647007529,4860.4913971887,0.3626771519381,9718.0199260185,0.0036790128438067,4860.5421708357,664.11406645792,2371.8898718194,1573.15
0.47198108322034,0.19993214020484,0.051239321374488,4860.49047845,0.36264597887462,9717.7016746562,0.0036787568604181,4860.5417177713,670.20503915168,2371.6860015917,1573.15
0.56737729986441,0.19992495118083,0.051749509681477,4860.4894697194,0.36261175178222,9717.3522521441,0.0036784757882757,4860.541219229,676.87824959023,2371.4621581724,1573.15
0.6818527598373,0.19991706120244,0.052308422525668,4860.4883626261,0.36257418690751,9716.9687597447,0.0036781672950597,4860.5406710486,684.18877195031,2371.2164858289,1573.15
0.81922331180476,0.19990840494815,0.052920671089427,4860.4871480012,0.36253297347534,9716.5480225047,0.0036778288260294,4860.5400686723,692.1969200217,2370.9469521077,1573.15
0.98406797416571,0.19989891087968,0.053591304111765,4860.4858158024,0.36248777115608,9716.0865633067,0.0036774575831175,4860.5394071065,700.96873078999,2370.6513312706,1573.15
1.1818815689988,0.19988850066174,0.054325848347728,4860.4843550319,0.36243820731395,9715.580574664,0.003677050502205,4860.5386808803,710.57649364118,2370.327186299,1573.15
1.4192578827986,0.19987708853151,0.055130352786136,4860.4827536479,0.36238387401839,9715.0258880739,0.0036766042284232,4860.5378840007,721.09932872521,2369.9718493477,1573.15
1.7041094593583,0.19986458061371,0.056011436927427,4860.4809984677,0.36232432479929,9714.4179407292,0.0036761150893228,4860.5370099047,732.6238184251,2369.5824005256,1573.15
2.04593135123,0.19985087417705,0.056976343450979,4860.4790750624,0.362259071126,9713.7517393756,0.0036755790657346,4860.5360514058,745.24469624018,2369.1556448671,1573.15
2.456117621476,0.19983585682736,0.058032995628069,4860.4769676426,0.362187578589,9713.021821094,0.0036749917601463,4860.5350006382,759.06559774159,2368.6880873617,1573.15
2.9483411457712,0.19981940563281,0.059190059863295,4860.4746589343,0.36210926276286,9712.2222107829,0.0036743483624064,4860.5338489942,774.19987860772,2368.1759058972,1573.15
3.5390093749255,0.19980138617658,0.0604570137734,4860.4721300441,0.36202348472931,9711.3463751126,0.0036736436125739,4860.5325870579,790.77150508808,2367.614921981,1573.15
4.2478112499105,0.19978165153234,0.061844220230139,4860.4693603127,0.36192954623947,9710.3871727295,0.0036728717607282,4860.5312045329,808.9160224765,2367.0005691015,1573.15
5.0983734998927,0.19976004115824,0.063363007722171,4860.4663271565,0.36182668449588,9709.3368004965,0.0036720265235659,4860.5296901643,828.7816062363,2366.3278586026,1573.15
6.1190481998712,0.19973637970537,0.06502575661812,4860.4630058962,0.36171406653693,9708.1867355793,0.0036711010376233,4860.5280316528,850.53019031228,2365.5913429583,1573.15
7.3438578398454,0.19971047573737,0.066845986140403,4860.4593695709,0.36159078320963,9706.9276732148,0.0036700878089909,4860.5262155571,874.33860473937,2364.7850763551,1573.15
8.8136294078145,0.19968212035899,0.0688384155343,4860.4553887388,0.36145584272166,9705.5494600488,0.0036689786594183,4860.5242271544,900.3993757278,2363.9025725221,1573.15
10.577355289377,0.1996510857524,0.071018902774546,4860.4510312614,0.36130816377065,9704.0410229956,0.0036677646687668,4860.5220501642,928.91992395167,2362.9367597977,1573.15
12.693826347253,0.19961712362239,0.073403997304891,4860.4462620723,0.36114656825803,9702.3902936664,0.0036664361138357,4860.5196660696,960.11671442842,2361.879933478,1573.15
15.233591616703,0.19957996355407,0.07600957468538,4860.4410429302,0.36096977360841,9700.5841285454,0.0036649824036961,4860.5170525049,994.19739784615,2360.7237055861,1573.15
18.281309940044,0.19953931128959,0.078847800375749,4860.435332154,0.36077638472941,9698.6082252304,0.003663392011773,4860.5141799544,1031.3210971636,2359.4589522898,1573.15
21.938571928053,0.19949484692802,0.081921829616923,4860.4290843411,0.36056488563587,9696.4470349362,0.0036616524048235,4860.5110061707,1071.5290826066,2358.0757591242,1573.15
26.327286313664,0.19944622300745,0.085218462944478,4860.4222500598,0.3603336305493,9694.0836692771,0.0036597499671895,4860.5074685227,1114.6487065418,2356.563362783,1573.15
31.593743576396,0.19939306217309,0.088700250867422,4860.4147754713,0.36008083306985,9691.4997869232,0.0036576699087142,4860.5034757221,1160.1901334892,2354.9100803031,1573.15
37.913492291676,0.1993349531299,0.092299554463977,4860.4066016955,0.35980454724208,9688.675396879,0.0036553961053615,4860.49890125,1207.2686533279,2353.1031852365,1573.15
45.497190750011,0.19927144069501,0.095917126446883,4860.3976633283,0.35950262064036,9685.5883749809,0.003652910708711,4860.4935804548,1254.5861217759,2351.1286008305,1573.15
54.597628900013,0.19920199987653,0.099426880858396,4860.3878846893,0.35917257164911,9682.2132039987,0.0036501931299295,4860.4873115702,1300.4933475097,2348.970097447,1573.15
65.518154680015,0.19912597626041,0.10268730463842,4860.3771713038,0.35881130688392,9678.5180761373,0.0036472177042959,4860.4798586085,1343.1393542975,2346.6074445118,1573.15
78.622785616018,0.19904247205075,0.10555888044713,4860.3653937034,0.358414580953,9674.4593540265,0.0036439492267898,4860.4709525839,1380.6992697234,2344.0128773811,1573.15
94.348342739222,0.19895016873835,0.10792562676778,4860.352362251,0.35797615630605,9669.9729515276,0.0036403360034934,4860.4602878778,1411.6560675096,2341.1456027979,1573.15
113.21901128707,0.19884710698396,0.10971688468419,4860.3377958348,0.35748676185771,9664.9636349556,0.0036363012217047,4860.4475127195,1435.0855363197,2337.944988342,1573.15
135.86381354448,0.1987304787197,0.1109232141057,4860.321292086,0.35693311263353,9659.294918171,0.0036317347885638,4860.4322153001,1450.8642007416,2334.3241509654,1573.15
163.03757625338,0.19859649990346,0.11159949733069,4860.3023086338,0.35629731628887,9652.7828778077,0.0036264883141863,4860.4139081311,1459.7099155779,2330.1660756569,1573.15
195.64609150405,0.19844040626182,0.11185110823232,4860.2801612249,0.3555568680918,9645.1959463556,0.0036203748943917,4860.3920123332,1463.0009602221,2325.3235826301,1573.15
234.77630980486,0.19825655562451,0.11180553354034,4860.2540362598,0.3546851569259,9636.2598861293,0.0036131730489472,4860.3658417933,1462.4048479511,2319.6226365559,1573.15
281.73257176583,0.19803856108376,0.11157926963907,4860.2230069179,0.35365212336538,9625.664261476,0.0036046318451741,4860.3345861876,1459.4453394577,2312.8666503396,1573.15
338.080086119,0.19777935795679,0.11125316266717,4860.1860389854,0.35242461111013,9613.0656934896,0.0035944734001372,4860.2972921481,1455.1798938973,2304.8387834883,1573.15
405.6971033428,0.19747114414737,0.11086512169457,4860.1419775169,0.35096612860424,9598.0849612828,0.0035823903815043,4860.2528426386,1450.1043579953,2295.3003831081,1573.15
486.83752401136,0.19710520928482,0.11041926449866,4860.0895159316,0.34923609886222,9580.2986972888,0.0035680390874064,4860.1999351961,1444.272591855,2283.9860778062,1573.15
584.20602881363,0.1966717324911,0.10990211159847,4860.0271579796,0.34718898186957,9559.2295577298,0.0035510312055224,4860.1370600912,1437.5082852556,2270.5980382362,1573.15
701.04823457636,0.19615963986805,0.1092955836381,4859.9531843333,0.34477370627708,9534.3392957865,0.0035309277899643,4860.062479917,1429.5749620866,2254.8022604077,1573.15
841.25888149163,0.19555657726129,0.10858252915017,4859.865630259,0.34193367667701,9505.0274377848,0.0035072376018965,4859.9742127882,1420.2482829234,2236.2286132725,1573.15
1009.51165779,0.19484901724367,0.10774690119524,4859.7622753105,0.33860744646647,9470.6364831285,0.0034794205252542,4859.8700222117,1409.3183554531,2214.4752392164,1573.15
1211.4149893479,0.19402251601285,0.1067726092839,4859.6406450967,0.33473012623946,9430.4643908045,0.0034468966468698,4859.747417706,1396.5747177337,2189.1177648702,1573.15
1453.6989872175,0.19306215950917,0.10564325555442,4859.4980280445,0.33023570060681,9383.7862629432,0.0034090625351219,4859.6036713,1381.8028874249,2159.7244529928,1573.15
1744.439784661,0.19195326149021,0.10434290101515,4859.3315130053,0.32506052240966,9329.8882747315,0.0033653172174515,4859.4358559063,1364.7943841598,2125.8790544473,1573.15
2093.3287415933,0.19068238340631,0.10285740477317,4859.1380544422,0.31914826518802,9268.1172454637,0.0033151007254956,4859.240911847,1345.3642465173,2087.21319709,1573.15
2511.9954899119,0.18923873467971,0.10117613416026,4858.9145707489,0.31245653406363,9197.9486991073,0.0032579477843946,4859.015746883,1323.3734002936,2043.4496206031,1573.15
3014.3955878943,0.18761597980285,0.099294050868101,4858.6580780148,0.30496515412429,9119.0746983177,0.0031935581783925,4858.7573720656,1298.7559449357,1994.4563821012,1573.15
3617.2757054731,0.1858144156326,0.097214135881797,4858.3658553405,0.29668583785849,9031.5096718223,0.0031218831258606,4858.4630694764,1271.5508714211,1940.3100806552,1573.15
4340.7318465678,0.18384337595919,0.094949963993413,4858.0356273886,0.28767243988025,8935.7072884965,0.0030432230860003,4858.1305773526,1241.9357366302,1881.3629226635,1573.15
5208.8792158813,0.18172356414552,0.092528057689296,4857.6657345933,0.27803033350254,8832.673835293,0.0029583263640454,4857.758262651,1210.257451949,1818.3040441593,1573.15
6250.6560590576,0.17948881703564,0.089989453480778,4857.2552422933,0.26792265786226,8724.0539520171,0.0028684697315269,4857.3452317467,1177.0527707136,1752.2003666856,1573.15
7500.7882708691,0.17718660186634,0.087389736076386,4856.8039207804,0.25757047125301,8612.1547837135,0.0027754931462093,4856.8913105165,1143.0487351788,1684.4976000833,1573.15
9000.9469250429,0.17487642335479,0.084796720993507,4856.3120169194,0.24724354627502,8499.8685571594,0.0026817535195229,4856.3968136404,1109.1323653183,1616.9600432467,1573.15
10801.137310052,0.17262539972764,0.082285118270703,4855.7797472809,0.23723914619776,8390.4575537618,0.0025899628222781,4855.8620323991,1076.2808607312,1551.5317826296,1573.15
12961.365772062,0.17050070819662,0.079928022902031,4855.2064876009,0.22784816319579,8287.1869218967,0.0025028911605339,4855.2864156238,1045.4502964015,1490.1152380534,1573.15
15553.639926474,0.16855950484274,0.07778602552385,4854.5897234732,0.21931177376302,8192.8347328816,0.002422952221291,4854.6675094987,1017.4331916039,1434.2876913516,1573.15
18664.368911769,0.16683820565616,0.075896014058343,4853.9239534055,0.21177685417532,8109.1709859175,0.0023517451870984,4853.9998494196,992.71203655627,1385.0097057946,1573.15
22397.243694123,0.16534425172329,0.074262924250919,4853.1998552783,0.20526312919685,8036.5573550103,0.0022896859598875,4853.2741182025,971.35139029939,1342.410280323,1573.15
26876.693432947,0.1640538906027,0.072858033315849,4852.4040630859,0.19965636812147,7973.8393527443,0.0022358848119746,4852.4769211192,952.97556175823,1305.742352009,1573.15
32252.033119537,0.16291825540527,0.071626047754124,4851.5197704613,0.19473659357733,7918.6418039733,0.0021883773932454,4851.5913965091,936.86131766832,1273.567280184,1573.15
38702.440743444,0.1618769308535,0.070500004384268,4850.5280643355,0.19023739752729,7868.0282241346,0.0021446821713785,4850.5985643399,922.132786522,1244.1427700229,1573.15
46442.929892133,0.16087443740033,0.069419062964484,4849.409516126,0.18591676805998,7819.302029843,0.0021024930399355,4849.4789351889,907.99418423114,1215.8860761047,1573.15
55731.51687056,0.15987302065631,0.068342123276531,4848.1453594573,0.18161129042814,7770.628169,0.0020602256042542,4848.2137015806,893.90792417993,1187.7284744094,1573.15
66877.821244672,0.15885679129484,0.067252013234556,4846.7177614358,0.17725280960605,7721.2343408857,0.0020172037231117,4846.785013449,879.6493972564,1159.2242345828,1573.15
80253.386493606,0.15782709478551,0.066150230013916,4845.1091918619,0.17284748551883,7671.1859420496,0.0019734758273718,4845.1753420919,865.23818635981,1130.4136422179,1573.15
96304.064792327,0.15679365736662,0.065047233264565,4843.3013692399,0.16843714381373,7620.9557163044,0.0019294483151843,4843.3664164731,850.81110263284,1101.5702348908,1573.15
115564.87875079,0.15576709952275,0.063954338398321,4841.2743629037,0.16406699932082,7571.0598723031,0.0018855710206449,4841.3383172421,836.51615049508,1072.9897152586,1573.15
138677.85550095,0.15475560262525,0.062880155487663,4839.0061359163,0.15977147816712,7521.8960656004,0.0018421949569767,4839.0690160718,822.46594880658,1044.8972284168,1573.15
166413.42760114,0.15376492263503,0.061830638907737,4836.4724383416,0.15557441638599,7473.7440646757,0.0017995713471923,4836.5342689805,808.73838018015,1017.4486607944,1573.15
199696.11412137,0.15279949570026,0.060810293813517,4833.6468066356,0.15149386489169,7426.819488511,0.0017578977538215,4833.7076169294,795.39237157825,990.7620644399,1573.15
239635.33794564,0.15186317678929,0.059822976888509,4830.5005055578,0.14754527890468,7381.3097078433,0.0017173491666104,4830.5603285346,782.47836802335,964.93851569812,1573.15
287562.40653477,0.15095941328985,0.058872089503428,4827.0023821818,0.14374228755607,7337.3822829532,0.0016780850901982,4827.0612542713,770.04085909365,940.06714838378,1573.15
345074.88884173,0.15009117835443,0.057960515162529,4823.1186605619,0.14009644473602,7295.181723917,0.0016402462626349,4823.1766210771,758.11756072742,916.22352434266,1573.15
414089.86761007,0.14926089653171,0.057090549333486,4818.8126991096,0.13661694945096,7254.8258759239,0.0016039509643216,4818.8697896589,746.73849740507,893.46780460243,1573.15
496907.84213209,0.14847041277287,0.056263875047319,4814.0447142343,0.13331054863725,7216.4044128256,0.0015692931680911,4814.1009781094,735.92568299878,871.84411377907,1573.15
596289.4115585,0.14772099137481,0.055481569343457,4808.7714665077,0.13018156314415,7179.9787857725,0.0015363419934487,4808.8269480771,725.69320507322,851.38071000385,1573.15
715547.2948702,0.14701333387945,0.054744128579859,4802.9459058516,0.12723198917484,7145.5830932106,0.0015051420192688,4803.0006499802,716.04755593928,832.09064834262,1573.15
858656.75484424,0.1463476128012,0.0540515091,4796.5167735861,0.12446166116704,7113.2257202026,0.001475714341967,4796.5708250952,706.98816457413,813.97284602671,1573.15
1030388.1068131,0.14572351910116,0.053403180964356,4789.428159762,0.12186846692687,7082.8916459119,0.0014480583053001,4789.481562943,698.50809942345,797.01348941696,1573.15
1236465.7291757,0.14514032016691,0.052798191341358,4781.6190142241,0.11944860138881,7054.5452617127,0.0014221537699479,4781.6718124154,690.59489754857,781.18769358117,1573.15
1483758.8760109,0.14459692433402,0.052235233491233,4773.0226095979,0.11719684273354,7028.1335072552,0.0013979637517726,4773.0748448314,683.23146692806,766.46130809016,1573.15
1780510.652213,0.14409194796154,0.051712717325801,4763.5659539247,0.11510683479441,7003.5891306707,0.0013754372499485,4763.617666642,676.39700937248,752.79276394185,1573.15
2136612.7836556,0.14362378151053,0.051228838029449,4753.1691500346,0.11317136169254,6980.8339003194,0.0013545121002727,4753.2203788727,670.06791807975,740.1348696605,1573.15
2563935.3413868,0.14319065176752,0.050781639969293,4741.7446979685,0.11138260361185,6959.7816291603,0.0013351177162984,4741.7954796085,664.21861357345,728.43648405214,1573.15
3076722.4106641,0.14279067815885,0.050369073957723,4729.1967358934,0.10973236596676,6940.3409119107,0.0013171776149546,4729.2471049673,658.82229269097,717.64401494958,1573.15
3692066.8937969,0.14242192190273,0.049989046746257,4715.4202140485,0.10821227747879,6922.4175140822,0.0013006116587308,4715.4702030952,653.85157595806,707.70271462332,1573.15
