time,atomic_fraction_H_enclosure_2_at_interface,concentration_H_encl_1_inventory,concentration_H_encl_2_inventory,concentration_H_enclosure_1_at_interface,concentration_H_enclosure_2_at_interface,concentration_ratio_H2,mass_conservation_sum_encl1_encl2,pressure_H2_enclosure_1,pressure_H2_enclosure_1_at_interface,temperature
0,0.25,0.028340499165705,6075.625,0.056680998331411,12151.25,0.00051419400971743,6075.6533404992,300,300,1273.15
1,0.2500085164742,0.027657806114274,6075.6261949736,0.03161718522407,12151.663943228,0.00028681729011663,6075.6538527797,292.77331305169,167.34277529414,1273.15
2.2,0.25001432308123,0.027242077108976,6075.6270097407,0.031618973697082,12151.946173363,0.00028683018347487,6075.6542518178,288.37258951961,167.35224128662,1273.15
3.64,0.25001904202697,0.02691124789721,6075.6276719218,0.031620413890077,12152.175537721,0.00028684054112271,6075.6545831697,284.87057768314,167.35986390991,1273.15
5.368,0.25002339872469,0.026607466235636,6075.6282833082,0.031621743319439,12152.387295014,0.00028685010163405,6075.6548907744,281.65487926021,167.36690028578,1273.15
7.4416,0.25002771234525,0.026306847658411,6075.6288886932,0.03162305964884,12152.596958541,0.00028685956787947,6075.6551955409,278.47266385037,167.37386732644,1273.15
9.92992,0.25003213431622,0.025998523431552,6075.6295093375,0.031624409103427,12152.81188844,0.00028686927230917,6075.6555078609,275.20887983878,167.3810096914,1273.15
12.915904,0.25003675341114,0.025676505609564,6075.630157715,0.031625818778422,12153.036399548,0.00028687940976722,6075.6558342206,271.80014148058,167.38847078967,1273.15
16.4990848,0.25004163444033,0.025337232882857,6075.6308429437,0.031627308451753,12153.273641972,0.00028689012245694,6075.6561801765,268.20875032629,167.39635530145,1273.15
20.79890176,0.25004683268707,0.024979397640837,6075.6315728122,0.031628894995252,12153.526302755,0.00028690153167546,6075.6565522098,264.420864588,167.40475252563,1273.15
25.958682112,0.25005239993105,0.024604735743235,6075.632354628,0.031630594214138,12153.796898649,0.00028691375104411,6075.6569593638,260.4548593097,167.41374611574,1273.15
32.1504185344,0.25005838768833,0.0242189061127,6075.6331956751,0.031632421835907,12154.087933591,0.00028692689361882,6075.6574145812,256.3706373458,167.42341931393,1273.15
39.58050224128,0.25006484980024,0.023831728956034,6075.6341035811,0.031634394300464,12154.402024541,0.00028694107757022,6075.6579353101,252.27215106577,167.433859133,1273.15
48.496602689536,0.2500718457412,0.023456429107891,6075.6350867876,0.031636529769939,12154.742062251,0.0002869564334429,6075.6585432167,248.29939272497,167.44516170108,1273.15
59.195923227443,0.25007944663823,0.023107995086904,6075.6361554017,0.031638849966667,12155.111503851,0.00028697311736884,6075.6592633968,244.61102415797,167.45744198969,1273.15
72.035107872932,0.25008774672177,0.022800985456495,6075.6373228133,0.031641383669562,12155.514929411,0.00028699133620355,6075.6601237988,241.36115588345,167.47085231927,1273.15
87.442129447518,0.25009688196088,0.022547109428628,6075.638608324,0.031644172404341,12155.958947709,0.00028701138843175,6075.6611554334,238.67373644475,167.48561247626,1273.15
105.93055533702,0.25010705409201,0.022352957285724,6075.6400405396,0.031647277781427,12156.453364142,0.00028703371691096,6075.6623934969,236.61852765925,167.50204855102,1273.15
128.11666640443,0.25011855383956,0.022218452784987,6075.6416606589,0.031650788589292,12157.012309372,0.00028705895984216,6075.6638791116,235.19472245436,167.5206304813,1273.15
154.73999968531,0.25013177547004,0.022136705058195,6075.6435245604,0.031654825245274,12157.654946721,0.00028708798272174,6075.6656612655,234.32937714431,167.54199560948,1273.15
186.68799962237,0.25014721825305,0.022095648885548,6075.6457030733,0.03165954025322,12158.405543189,0.00028712188156061,6075.6677987222,233.89477464411,167.56695110472,1273.15
225.02559954685,0.2501654775403,0.022081150591718,6075.6482808185,0.031665115496121,12159.293035846,0.00028716196332199,6075.6703619691,233.74130211269,167.59645963349,1273.15
271.03071945622,0.25018723474863,0.022080479011718,6075.651354936,0.031671759199367,12160.350544957,0.00028720972395978,6075.673435415,233.73419306359,167.63162328679,1273.15
326.23686334746,0.25021325732097,0.022084752137019,6075.6550352663,0.031679705947357,12161.615372086,0.00028726684836538,6075.6771200184,233.77942647965,167.67368366799,1273.15
392.48423601695,0.25024441530733,0.022089499641843,6075.6594469405,0.031689221785142,12163.129806013,0.00028733524680557,6075.6815364401,233.82968146772,167.72404889478,1273.15
471.98108322034,0.25028171325113,0.022093552628613,6075.6647352295,0.031700614009919,12164.942672571,0.00028741712497253,6075.6868287822,233.87258459458,167.78434542332,1273.15
567.37729986441,0.25032633009052,0.022097308883013,6075.6710716754,0.031714243434639,12167.11127405,0.00028751507165251,6075.6931689843,233.9123466437,167.85648295682,1273.15
681.8527598373,0.25037965976627,0.02210142428916,6075.6786605483,0.031730536902542,12169.703362939,0.00028763214798328,6075.7007619726,233.9559105145,167.94272068224,1273.15
819.22331180476,0.25044334988197,0.022106309403401,6075.6877453496,0.031749999254933,12172.799021013,0.00028777197248757,6075.709851659,234.00762217504,168.04573061307,1273.15
984.06797416571,0.25051934008007,0.022112165707088,6075.6986157266,0.031773225277532,12176.492524592,0.00028793880555377,6075.7207278923,234.06961441786,168.16866081869,1273.15
1181.8815689988,0.25060990243311,0.022119146488485,6075.7116153036,0.031800912350972,12180.894307761,0.0002881376384373,6075.73373445,234.1435098848,168.3152023807,1273.15
1419.2578827986,0.25071768399221,0.022127440160019,6075.7271507026,0.031833873879817,12186.133030441,0.00028837428713069,6075.7492781427,234.23130302653,168.48966046974,1273.15
1704.1094593583,0.25084574923435,0.022137281196156,6075.7457017857,0.031873052849361,12192.357641536,0.00028865548619269,6075.7678390669,234.33547588616,168.69702609859,1273.15
2045.93135123,0.25099761850927,0.022148943377269,6075.7678330435,0.031919534366482,12199.739247643,0.00028898897403791,6075.7899819869,234.45892658169,168.94304249821,1273.15
2456.117621476,0.25117729707895,0.022162737921125,6075.7942060054,0.031974555586552,12208.472524522,0.00028938355789303,6075.8163687433,234.60494952691,169.23425765862,1273.15
2948.3411457712,0.25138928726438,0.022179014687729,6075.8255924567,0.032039510794973,12218.776307485,0.00028984914207563,6075.8477714714,234.77724818518,169.57805122436,1273.15
3539.0093749255,0.25163857345781,0.022198161907436,6075.8628881046,0.032115948560164,12230.892862917,0.0002903966972051,6075.8850862665,234.97993219151,169.98261942592,1273.15
4247.8112499105,0.25193056655061,0.022220602579483,6075.9071261556,0.032205556865454,12245.085187193,0.00029103814090232,6075.9293467582,235.21747922886,170.45689638607,1273.15
5098.3734998927,0.25227099105897,0.022246786459341,6075.9594900916,0.032310131066792,12261.631520421,0.0002917860933155,6075.9817368781,235.49465020992,171.01038452716,1273.15
6119.0481998712,0.25266569560522,0.022277176227353,6076.0213247876,0.032431518611509,12280.816134892,0.00029265346494977,6076.0436019638,235.81634286432,171.65286197969,1273.15
7343.8578398454,0.25312036669894,0.022312226225738,6076.094145099,0.032571534062324,12302.915423402,0.00029365283252618,6076.1164573252,236.18736665801,172.3939328232,1273.15
8813.6294078145,0.25364012898343,0.02235235232858,6076.1796412835,0.032731838714128,12328.17846924,0.00029479556536732,6076.2019936358,236.61212385026,173.24238992447,1273.15
10577.355289377,0.25422902514158,0.022397892209493,6076.2796813036,0.032913781866295,12356.801767007,0.00029609068639066,6076.3020791958,237.09418890472,174.20537482694,1273.15
12693.826347253,0.25488938899073,0.022449056762454,6076.3963114243,0.033118206764374,12388.898751894,0.00029754349593259,6076.418760481,237.63579425184,175.28735064298,1273.15
15233.591616703,0.25562115919712,0.022505876002153,6076.5317587932,0.03334523449403,12424.466442776,0.00029915406058779,6076.5542646692,238.23725761387,176.48895825226,1273.15
18281.309940044,0.25642122955946,0.02256814656561,6076.6884429701,0.033594054269399,12463.353862738,0.00030091577574174,6076.7110111166,238.89642628016,177.80590634436,1273.15
21938.571928053,0.25728299037252,0.022635392677563,6076.8690073725,0.033862767492348,12505.239747056,0.0003028143399044,6076.8916427651,239.60826390405,179.22814605886,1273.15
26327.286313664,0.25819626921692,0.022706857045478,6077.0763853983,0.034148351344082,12549.629665288,0.00030482759949842,6077.0990922553,240.36475412143,180.73967828381,1273.15
31593.743576396,0.25914789982842,0.02278154035871,6077.313917684,0.034446816491175,12595.88367116,0.00030692677131854,6077.3366992244,241.15531867143,182.31938835886,1273.15
37913.492291676,0.26012309300991,0.022858304472665,6077.5855338321,0.034753619134572,12643.282935747,0.00030907943447944,6077.6083921366,241.96790965833,183.9432269596,1273.15
45497.190750011,0.26110761321808,0.02293604141727,6077.8960012525,0.035064335944159,12691.135540465,0.00031125431247938,6077.9189372939,242.79079860059,185.58778237712,1273.15
54597.628900013,0.26209046975496,0.023013886938239,6078.2512248249,0.035375516845153,12738.90728244,0.00031342721619876,6078.2742387118,243.61483688425,187.2347941279,1273.15
65518.154680015,0.26306647880608,0.023091428314615,6078.658558125,0.035685514946774,12786.346202369,0.00031558673367122,6078.6816495534,244.43565562766,188.87554558296,1273.15
78622.785616018,0.26403780991701,0.023168835204214,6079.1270708948,0.035995009071168,12833.557751016,0.00031773770381248,6079.15023973,245.25505075349,190.51362959792,1273.15
94348.342739222,0.26501372586101,0.023246848117155,6079.6677232202,0.036306957699953,12880.992145474,0.00031990070819406,6079.6909700683,246.08086097459,192.16470476226,1273.15
113219.01128707,0.26600829890371,0.023326603984162,6080.2934338148,0.036625902338242,12929.333368215,0.00032210707667055,6080.3167604188,246.9251213372,193.85280825909,1273.15
135863.81354448,0.26703679280228,0.023409351132869,6081.0190883545,0.036956829220605,12979.323314155,0.00032439091121134,6081.0424977056,247.80104608599,195.60433112621,1273.15
163037.57625338,0.26811213937953,0.023496166901786,6081.8615812904,0.037304041562488,13031.590534542,0.00032678128298908,6081.8850774573,248.72003945031,197.44204933216,1273.15
195646.09150405,0.26924292904256,0.02358779275968,6082.8399828345,0.037670501098476,13086.552566114,0.00032929775529972,6082.8635706273,249.68995029089,199.38163868366,1273.15
234776.30980486,0.2704334382818,0.023684631702544,6083.9758630278,0.038057817700955,13144.417267687,0.00033195041265149,6083.9995476595,250.71504454521,201.43161987956,1273.15
281732.57176583,0.27168502956701,0.023786857279284,6085.2937263301,0.038466684784975,13205.250862105,0.00033474294347743,6085.3175131874,251.79715932529,203.59566301247,1273.15
338080.086119,0.27299768358136,0.02389453543515,6086.8214723837,0.038897365866796,13269.052410472,0.00033767603300829,6086.8453669191,252.9369926984,205.87516281576,1273.15
405697.1033428,0.27437081093178,0.024007689465785,6088.5908240473,0.039349953892918,13335.793265339,0.00034074916529816,6088.6148317368,254.13479126194,208.27061123469,1273.15
486837.52401136,0.27580330800301,0.02412630371184,6090.6377168041,0.039824385906513,13405.419785486,0.00034396074310331,6090.6618431078,255.39038925294,210.7816750527,1273.15
584206.02881363,0.27729329621573,0.024250300769872,6093.0026732313,0.04032035195328,13477.840662566,0.00034730749490455,6093.0269235321,256.70296731277,213.40671375015,1273.15
701048.23457636,0.27883790539235,0.024379521541504,6095.7311792543,0.040837215336982,13552.916391595,0.00035078397135253,6095.7555587759,258.07084129632,216.14235743454,1273.15
841258.88149163,0.2804331849122,0.024513715217701,6098.8740596148,0.041373972566666,13630.454952658,0.00035438231941156,6098.89857333,259.49135624998,218.98329485,1273.15
1009511.65779,0.28207408678359,0.024652534800662,6102.4878408743,0.041929235432309,13710.210988117,0.00035809221059048,6102.5124934091,260.96083900838,221.92217850761,1273.15
1211414.9893479,0.28375447850425,0.024795534798323,6106.6350922858,0.042501221772317,13791.886427699,0.00036190082962198,6106.6598878206,262.47457378939,224.94957581983,1273.15
1453698.9872175,0.28546718512183,0.024942171175674,6111.384739672,0.043087755273354,13875.132532847,0.00036579292335351,6111.4096818432,264.02680167881,228.05396804105,1273.15
1744439.784661,0.28720407142927,0.025091804673174,6116.8123513582,0.043686278740614,13959.553891819,0.00036975093648298,6116.8374431628,265.61075575766,231.2218205042,1273.15
2093328.7415933,0.28895616976348,0.025243708203671,6123.0003991866,0.044293883682681,14044.714631354,0.00037375524949011,6123.0256428948,267.21873940263,234.43773920687,1273.15
2511995.4899119,0.29071385325452,0.025397078598201,6130.03850271,0.044907357292386,14130.146837436,0.00037778452222874,6130.0638997886,268.84225062204,237.68471947062,1273.15
3014395.5878943,0.29246705067995,0.025551052662561,6138.023670617,0.045523246671271,14215.360998299,0.00038181613877913,6138.0492216697,270.4721520235,240.94448586685,1273.15
3617275.7054731,0.29420549547495,0.025704727171534,6147.0605596129,0.046137938805145,14299.85810756,0.00038582674103696,6147.0862643401,272.09888246399,244.19791550977,1273.15
4340731.8465678,0.29591899771705,0.025857182044236,6157.2617766322,0.046747753264566,14383.142884037,0.00038979282953281,6157.2876338142,273.71270237391,247.42552869959,1273.15
5208879.2158813,0.29759772468572,0.026007505569137,6168.7482546328,0.047349043104314,14464.73740835,0.00039369140154471,6168.7742621384,275.30396077788,250.60802296106,1273.15
6250656.0590576,0.29923247349984,0.026154820242907,6181.6497346045,0.047938298218518,14544.19437446,0.00039750059015124,6181.6758894247,276.86336881345,253.72682007941,1273.15
7500788.2708691,0.30081491881334,0.026298307609108,6196.1053862841,0.048512244695337,14621.109128922,0.00040120026471161,6196.1316845917,278.38226266245,256.76459196266,1273.15
9000946.9250429,0.30233781985955,0.026437230473467,6212.2645972473,0.049067933678133,14695.129734273,0.00040477255423877,6212.2910344778,279.85283871209,259.70573096421,1273.15
10801137.310052,0.30379517425579,0.026570951050944,6230.2879547855,0.049602813953867,14765.964444703,0.00040820226054402,6230.3145257365,281.26834565176,262.53673407713,1273.15
12961365.772062,0.30518231057901,0.026698943952651,6250.3484379956,0.050114783900933,14833.386205693,0.00041147713741311,6250.3751369396,282.62322194691,265.24647788266,1273.15
15553639.926474,0.30649591718906,0.026820803402166,6272.6328298373,0.050602220354438,14897.234054974,0.00041458802421568,6272.6596506407,283.91317222762,267.82637132767,1273.15
18664368.911769,0.30773401033522,0.026936244610131,6297.343351747,0.051063984104587,14957.411572343,0.00041752883550851,6297.3702879916,285.13518183963,270.27038482642,1273.15
22397243.694123,0.30889584945215,0.027045099752847,6324.6995178426,0.051499403810852,15013.882762622,0.00042029642044743,6324.7265629423,286.2874742754,272.57496512184,1273.15
26876693.432947,0.30998181110697,0.027147309421497,6354.9402026053,0.051908241798567,15066.665928854,0.00042289031548544,6354.9673499147,287.36942065947,274.73885425445,1273.15
32252033.119537,0.31099323495796,0.027242910684413,6388.325915521,0.052290646307561,15115.826185132,0.00042531241982264,6388.3531584317,288.38141338082,276.76283682489,1273.15
38702440.743444,0.31193225540669,0.027332023026724,6425.1412780723,0.052647095250221,15161.467274042,0.00042756662530672,6425.1686100953,289.3247172562,278.64944231784,1273.15
46442929.892133,0.31280163238259,0.027414833484685,6465.6976992905,0.052978336748238,15203.723341956,0.00042965843318682,6465.7251141239,290.20131216876,280.40263037611,1273.15
55731516.87056,0.31360459783982,0.027491582649701,6510.3362253305,0.053285333148122,15242.751478004,0.00043159459872573,6510.3637169131,291.01374491281,282.02749448712,1273.15
65731516.87056,0.3142751751431,0.027555874010493,6554.5477658091,0.053542498407572,15275.34488783,0.00043321463547315,6554.5753216831,291.69430484666,283.38861338246,1273.15
75731516.87056,0.31480926466557,0.027607208184147,6595.5826605635,0.053747834976707,15301.30430907,0.00043450697144208,6595.6102677717,292.23770572349,284.47541447195,1273.15
85731516.87056,0.3152480729777,0.027649470107745,6634.0387498551,0.053916882580888,15322.632587081,0.00043557012017593,6634.0663993252,292.6850717704,285.37014608832,1273.15
95731516.87056,0.31561792279173,0.027685150911111,6670.3526511239,0.054059605726768,15340.609137292,0.00043646715882931,6670.3803362748,293.06277298686,286.12554816352,1273.15
105731516.87056,0.31593615390269,0.027715896185422,6704.8477776746,0.054182586771862,15356.07676044,0.0004372397104127,6704.8754935708,293.38822887383,286.77645966145,1273.15
115731516.87056,0.31621468494333,0.027742839663794,6737.7688871085,0.054290360644284,15369.614761671,0.00043791642595237,6737.7966299481,293.67344062908,287.34688295459,1273.15
125731516.87056,0.31646205502737,0.027766795297343,6769.3051625514,0.054386183145678,15381.638184605,0.00043851785906927,6769.3329293466,293.92702437941,287.85405028164,1273.15
135731516.87056,0.31668458985547,0.027788367193919,6799.60548537,0.054472470705487,15392.454489925,0.0004390592537288,6799.6332737372,294.15537494355,288.31075126971,1273.15
145731516.87056,0.31688708759599,0.027808014354894,6828.7887617338,0.05455105932778,15402.296892603,0.00043955218504859,6828.8165697481,294.36335110721,288.72670348265,1273.15
155731516.87056,0.3170732437797,0.027826090817607,6856.9511495433,0.054623365160841,15411.345013912,0.00044000557634665,6856.9789756341,294.55470055318,289.10940228043,1273.15
165731516.87056,0.31724593136102,0.027842872150565,6884.1712956826,0.054690490477874,15419.738493802,0.00044042637006636,6884.1991385547,294.73234032791,289.46468175155,1273.15
175731516.87056,0.31740739653548,0.027858574014442,6910.5142406155,0.054753297920938,15427.586508607,0.00044081999744286,6910.5420991895,294.89855331998,289.79710766983,1273.15
185731516.87056,0.31755940217961,0.027873365789914,6936.0343875388,0.054812465012236,15434.97474294,0.00044119072304038,6936.0622609046,295.05513251838,290.11026601058,1273.15
195731516.87056,0.31770333624632,0.027887380901043,6960.7777877168,0.054868525447633,15441.970658252,0.00044154190551086,6960.8056750977,295.20349029127,290.40698150808,1273.15
205731516.87056,0.31784029514601,0.027900724774769,6984.7839110867,0.054921900934578,15448.627545572,0.00044187619847077,6984.8118118114,295.34474264163,290.6894861667,1273.15
215731516.87056,0.31797114842854,0.027913481028267,7008.0870223471,0.054972925941546,15454.987669369,0.0004421957065343,7008.1149358281,295.47977470395,290.95955025415,1273.15
225731516.87056,0.31809658910373,0.027925716291316,7030.7172517796,0.055021866987456,15461.084713387,0.00044250210684278,7030.7451774959,295.60929179161,291.2185843962,1273.15
235731516.87056,0.31821717279255,0.027937483964166,7052.7014288992,0.055068937673171,15466.945683582,0.00044279674371352,7052.7293663832,295.73385917605,291.467719135,1273.15
245731516.87056,0.31833334815795,0.027948827142348,7074.0637316501,0.055114310380705,15472.592387217,0.00044308070227014,7074.0916804773,295.85393304754,291.70786685048,1273.15
255731516.87056,0.31844548053004,0.027959780890012,7094.8261921926,0.055158125366565,15478.042581163,0.0004433548656486,7094.8541519735,295.96988457965,291.93976988933,1273.15
265731516.87056,0.31855387023065,0.027970374004968,7115.0090912789,0.055200497821928,15483.310862561,0.0004436199593966,7115.037061653,296.08201861329,292.164037933,1273.15
275731516.87056,0.31865876677845,0.027980630388117,7134.6312661416,0.055241523350339,15488.409359266,0.00044387658591071,7134.659246772,296.19058815283,292.38117698992,1273.15
