time,atomic_fraction_H_enclosure_2_at_interface,concentration_H_encl_1_inventory,concentration_H_encl_2_inventory,concentration_H_enclosure_1_at_interface,concentration_H_enclosure_2_at_interface,concentration_ratio_H2,mass_conservation_sum_encl1_encl2,pressure_H2_enclosure_1,pressure_H2_enclosure_1_at_interface,temperature
0,0.11584351473475,0.015290640440228,2815.2870168412,0.030581280880457,5630.5740336824,0.00040754853380549,2815.3023074816,200,200,1573.15
0.001,0.11583846924482,0.015320194258637,2815.2796845266,0.030648788193787,5630.3287976444,0.00040845708081658,2815.2950047208,200.38656089683,200.44149434809,1573.15
0.0022,0.1158364768847,0.015346706156349,2815.2765116916,0.03069378755998,5630.2319589807,0.00040906030619412,2815.2918583977,200.73333378468,200.73578788255,1573.15
0.00364,0.11583968272569,0.015379893560635,2815.2806833975,0.03075329319433,5630.387778882,0.0004098476745788,2815.296063291,201.16742161004,201.12495166272,1573.15
0.005368,0.11584912241148,0.015421113575969,2815.2941243272,0.030830276231973,5630.8465948098,0.00041085688399398,2815.3095454407,201.70657515949,201.62841675919,1573.15
0.0074416,0.11586510914522,0.015471743154568,2815.3180969978,0.030927317798635,5631.6236300032,0.00041212166502116,2815.3335687409,202.36880482603,202.2630636011,1573.15
0.00992992,0.11588758866466,0.015533333952441,2815.3537716495,0.031047108676601,5632.7162470457,0.00041367780935624,2815.3693049834,203.17440611021,203.04648976585,1573.15
0.012915904,0.11591650264025,0.01560775136443,2815.4028381339,0.031192891423194,5634.1216108294,0.00041556840850564,2815.4184458853,204.14777818419,203.99990141112,1573.15
0.0164990848,0.11595210227473,0.015697315186436,2815.4681027015,0.031368882375434,5635.8519310634,0.00041784889544976,2815.4838000167,205.31926373912,205.1508731636,1573.15
0.02079890176,0.11599513560065,0.015804921794941,2815.5539905543,0.031580591593668,5637.9435658697,0.00042059092629603,2815.5697954761,206.72674708065,206.53544053382,1573.15
0.025958682112,0.11604688633014,0.015934144874882,2815.6669472292,0.031835023257325,5640.4589100763,0.0004238849054196,2815.6828813741,208.41697163921,208.19941049408,1573.15
0.0321504185344,0.11610911930426,0.016089331269746,2815.815835234,0.03214081605315,5643.4837437837,0.00042784184664577,2815.8319245653,210.4467936793,210.19927961023,1573.15
0.03958050224128,0.11618402333917,0.016275717951122,2816.0124762457,0.032508419438278,5647.1244544003,0.00043259567690196,2816.0287519636,212.88471224923,212.60338679308,1573.15
0.048496602689536,0.11627421380631,0.016499589833604,2816.2724656553,0.03295037495683,5651.5081620558,0.00043830677269991,2816.2889652452,215.81293338368,215.49375309447,1573.15
0.059195923227443,0.11638280152286,0.016768485318295,2816.6163327823,0.033481718477938,5656.7860680185,0.00044516689779287,2816.6331012676,219.33005859165,218.96871232319,1573.15
0.072035107872932,0.11651350262041,0.017091449670683,2817.0711020562,0.034120489782166,5663.1387948652,0.00045340536406271,2817.0881935059,223.55439901284,223.14624371389,1573.15
0.087442129447518,0.11667076901892,0.017479338854715,2817.6723451384,0.034888343187879,5670.7827281645,0.00046329631059591,2817.6898244772,228.62794953609,228.16796539202,1573.15
0.10593055533702,0.1168599374885,0.017945182494684,2818.4668729795,0.035811273747343,5679.9772616284,0.00047516721692803,2818.484818162,234.72113630338,234.20388365897,1573.15
0.12811666640443,0.11708740523964,0.018504618893874,2819.5162751827,0.036920486539849,5691.0333316726,0.00048940888660231,2819.5347798016,242.03850670885,241.45807812415,1573.15
0.15473999968531,0.11736084026221,0.019176417273585,2820.9015744555,0.038253440690019,5704.3236409448,0.00050648714231141,2820.9207508728,250.82556023139,250.17552953098,1573.15
0.18668799962237,0.11768943308117,0.019983104653606,2822.7293420213,0.039855102964337,5720.29489491,0.00052695645196402,2822.7493251259,261.37694796657,260.6503182135,1573.15
0.22502559954685,0.11808419704593,0.020951718123657,2825.1397263148,0.041779452146499,5739.4823974177,0.00055147569495057,2825.160678033,274.04631225955,273.2354626336,1573.15
0.27103071945622,0.11855832598816,0.02211470754347,2828.3169873239,0.044091284185189,5762.5274346547,0.00058082626249572,2828.3391020315,289.25809392899,288.35472495442,1573.15
0.32623686334746,0.11912761976875,0.023511018742191,2832.5033112324,0.046868378208699,5790.1979588599,0.00061593264100006,2832.5268222511,307.52170040354,306.51677666419,1573.15
0.39248423601695,0.11981098966882,0.025187393313351,2838.0169199658,0.050204095565194,5823.4131528531,0.00065788554781887,2838.0421073591,329.44850690603,328.33219616565,1573.15
0.47198108322034,0.12063105746702,0.027199928836322,2845.2757879956,0.054210500541,5863.2725481847,0.00070796758912562,2845.3029879244,355.77226398917,354.53387811263,1573.15
0.56737729986441,0.12161486517211,0.029615953442503,2854.8285591992,0.05902211442433,5911.0905216903,0.00076768129458037,2854.8581751526,387.37361666796,386.00158479332,1573.15
0.6818527598373,0.12279471623723,0.032516280761402,2867.3943047375,0.064800442248398,5968.4371827105,0.0008387792074728,2867.4268210183,425.30959888187,423.79155079675,1573.15
0.81922331180476,0.12420917133444,0.035997923975049,2883.9122436482,0.071739437359569,6037.1867727104,0.00092329537552143,2883.9482415722,470.84913304666,469.17222100671,1573.15
0.98406797416571,0.12590421997208,0.040177359814902,2905.6011683172,0.080072087425562,6119.5746117428,0.0010235770346112,2905.641345677,525.51572279732,523.66732275582,1573.15
1.1818815689988,0.1279318958072,0.045194531861972,2934.0136712556,0.090078663661082,6218.1297957091,0.0011423312117235,2934.0588657874,591.13981574073,589.10981533575,1573.15
1.4192578827986,0.1303614992229,0.051217180680884,2971.1388984659,0.10209472459104,6336.2206697291,0.0012825909021108,2971.1901156466,669.91544116276,667.69423419594,1573.15
1.7041094593583,0.13326840498148,0.058447053517853,3019.429275637,0.11652477472415,6477.5108241246,0.0014478187554468,3019.4877226905,764.48143223725,762.06601796468,1573.15
2.04593135123,0.1367436180948,0.0671261188135,3081.8590768594,0.13385370644721,6646.4235574979,0.0016418610279313,3081.9262029782,878.00271121276,875.39633784762,1573.15
2.456117621476,0.1408943723449,0.077544779033305,3161.9409527952,0.15466355197345,6848.1709678238,0.0018689629100189,3162.0184975742,1014.2777123879,1011.4916545061,1573.15
2.9483411457712,0.14584628027764,0.090051446774758,3263.7068066099,0.17965246851387,7088.8584528945,0.0021337573822932,3263.7968580567,1177.8636366053,1174.9178800988,1573.15
3.5390093749255,0.15174565651115,0.10506405720714,3391.6501613975,0.20965760493094,7375.5976347247,0.0024412486270254,3391.7552254547,1374.2270327765,1371.1499250179,1573.15
4.2478112499105,0.158761764091,0.12308388322688,3550.6406119199,0.24568254263297,7716.6155436429,0.0027967964929931,3550.7636958031,1609.9244986895,1606.7511599226,1573.15
5.0983734998927,0.16708877657168,0.14471213744864,3745.836780004,0.28893031986576,8121.3499852663,0.0032061143289055,3745.9814921415,1892.8198333396,1889.5893929047,1573.15
6.1190481998712,0.17694712198559,0.17066994670187,3982.6350511645,0.34084326929186,8600.5148641095,0.0036752974809861,3982.8057211112,2232.3453012845,2229.0974052018,1573.15
7.3438578398454,0.1885836906976,0.20182239557971,4266.6849758802,0.40315111969773,9166.1102863569,0.0042109039092959,4266.8867982758,2639.8161197844,2636.5875338817,1573.15
8.8136294078145,0.20227012191179,0.23920745161741,4603.9690140801,0.47792900972102,9831.3392755228,0.0048201111234575,4604.2082215317,3128.8087971524,3125.6310786279,1573.15
10.577355289377,0.21829802041556,0.2840707131783,5000.8882462354,0.56766725501104,10610.375282298,0.0055109753808559,5001.1723169486,3715.6156315198,3712.5145753709,1573.15
12.693826347253,0.23696949848523,0.33790708349545,5464.2401964709,0.6753549751351,11517.902473874,0.0062928213871198,5464.5781035544,4419.7898030019,4416.7867119438,1573.15
15.233591616703,0.25858090591182,0.40251069883108,6000.9527880289,0.80458012310411,12568.324931844,0.0071767959603554,6001.3552987277,5264.7984288756,5261.9125160208,1573.15
18.281309940044,0.28339703939191,0.48003474293538,6617.4652866761,0.95964912347314,13774.513099644,0.0081766299396426,6617.945321419,6278.8049305306,6276.0557821266,1573.15
21.938571928053,0.31161258724211,0.57306315696333,7318.7007200956,1.1457301683271,15145.929802903,0.0093096719731991,7319.2737832526,7495.6069917863,7493.0162199932,1573.15
26.327286313664,0.34329725496084,0.68469668159517,8106.6098120687,1.3690251333452,16685.963077372,0.010598289590312,8107.2945087503,8955.7619809539,8953.3537767546,1573.15
31.593743576396,0.37832136292909,0.81865613938261,8978.2643078528,1.6369760042837,18388.309845169,0.012071782631803,8979.0829639922,10707.937873273,10705.738655504,1573.15
37.913492291676,0.41626056707672,0.97940640878559,9923.4771719283,1.9585127296422,20232.344862764,0.013769028192115,9924.4565783371,12810.534818527,12808.572258946,1573.15
45.497190750011,0.45628325630905,1.1723052058659,10922.009979639,2.3443506952594,22177.647672902,0.015742178740047,10923.182284845,15333.63119025,15331.932657913,1573.15
54.597628900013,0.49703467263723,1.4037816132594,11940.678260825,2.8073476575884,24158.370263533,0.018061856258788,11942.082042438,18361.318726274,18359.908916585,1573.15
65.518154680015,0.53655184799507,1.6815502980206,12931.167354549,3.3629319959394,26079.1025718,0.020824364843122,12932.848904847,21994.50447604,21993.401840068,1573.15
78.622785616018,0.57227853432335,2.0148685603611,13830.238033472,4.0296165644686,27815.598160786,0.024161256797944,13832.252902032,26354.272971591,26353.484539909,1573.15
94.348342739222,0.60130476818988,2.4148447939679,14565.361966904,4.8296153218966,29226.418257869,0.02825040921377,14567.776811698,31585.920856718,31585.435160651,1573.15
113.21901128707,0.62102836608105,2.8948086783437,15070.624690531,5.7895834470007,30185.083733369,0.033323539589693,15073.519499209,37863.798964597,37863.577196994,1573.15
135.86381354448,0.63047832713707,3.4707555612718,15318.873132146,6.9415060838344,30644.399090497,0.039653192085842,15322.343887707,45397.124794597,45397.091841699,1573.15
163.03757625338,0.63228284776047,4.1618802650812,15370.222777484,8.3237670252173,30732.107815398,0.047481424751179,15374.384657749,54436.964643176,54437.007120501,1573.15
193.03757625338,0.96181463086453,4.9244735420359,22864.733749936,9.8481410779824,46749.00013317,0.045547872687993,22869.658223478,64411.606057782,64406.33481952,1573.15
223.03757625338,0.98368285368589,5.6879474098302,23988.93885914,11.376037494158,47811.905103403,0.052026305924684,23994.62680655,74397.765509753,74398.698593608,1573.15
253.03757625338,1.0066693606875,6.4508710185465,24461.741640989,12.901732873954,48929.164276215,0.0583262623218,24468.192512008,84376.727629731,84376.667703273,1573.15
283.03757625338,1.0299557747179,7.2138546326018,25004.277726737,14.427668275145,50061.000430164,0.064483171018328,25011.49158137,94356.474613357,94356.206540486,1573.15
300,1.0432834285414,7.6452651395047,25327.870135804,15.290488882472,50708.791044254,0.06790155858668,25335.515400944,99999.279551309,99999.00882009,1573.15
