time,atomic_fraction_H_enclosure_2_at_interface,concentration_H_encl_1_inventory,concentration_H_encl_2_inventory,concentration_H_enclosure_1_at_interface,concentration_H_enclosure_2_at_interface,concentration_ratio_H2,mass_conservation_sum_encl1_encl2,pressure_H2_enclosure_1,pressure_H2_enclosure_1_at_interface,temperature
0,0.21690580730817,0.018179700720663,5271.3533821069,0.036359401441326,10542.706764214,0.00035411201414084,5271.3715618076,200,200,1323.15
0.001,0.21689963882561,0.018215249239761,5271.3445436766,0.036441308932186,10542.406945119,0.00035491477543676,5271.3627589258,200.39107925531,200.45054367021,1323.15
0.0022,0.21689574800446,0.018247834989268,5271.3387760822,0.036499068866867,10542.217831757,0.00035548050821694,5271.3570239172,200.74956424918,200.76826031235,1323.15
0.00364,0.21689729393536,0.018287023531461,5271.3405845242,0.036568738997204,10542.292971728,0.00035615778704312,5271.3588715477,201.18068842218,201.15149066035,1323.15
0.005368,0.21690802933767,0.018334203453004,5271.3555799303,0.036652953588798,10542.814765958,0.00035696915307813,5271.3739141337,201.6997280067,201.61472486254,1323.15
0.0074416,0.21693277614856,0.018391022164902,5271.3913586036,0.036754822304301,10544.017584701,0.000357940851313,5271.4097496258,202.32480663446,202.17506805558,1323.15
0.00992992,0.21697778944152,0.018459472675432,5271.4583787216,0.036878136980224,10546.205455805,0.00035910450980592,5271.4768381942,203.07784994999,202.85337776935,1323.15
0.012915904,0.21705105432197,0.018541960506437,5271.5709673421,0.037027503453353,10549.766495319,0.00036049812273127,5271.5895093026,203.98532177554,203.67498905671,1323.15
0.0164990848,0.2171625116109,0.018641387322241,5271.7485483487,0.037208508881452,10555.183876848,0.00036216740764956,5271.767189736,205.07914413633,204.67063486453,1323.15
0.02079890176,0.21732418996843,0.018761250084385,5272.0171807331,0.037427917711148,10563.042253415,0.00036416747713013,5272.0359419832,206.39778808967,205.8775239826,1323.15
0.025958682112,0.217550229763,0.0189057588791,5272.4115273469,0.037693902208059,10574.028917631,0.00036656487920833,5272.4304331058,207.98756997811,207.34060910704,1323.15
0.0321504185344,0.21785681876626,0.01907997758568,5272.9774358861,0.038016316194609,10588.930676134,0.00036944005363394,5272.9965158637,209.9041989618,209.11409257359,1323.15
0.03958050224128,0.21826211873641,0.01928999296369,5273.7754050932,0.038407024676036,10608.630281183,0.00037289023230276,5273.7946950862,212.21463719439,211.26323951187,1323.15
0.048496602689536,0.21878632799845,0.019543119381892,5274.8853198804,0.038880306688667,10634.109472365,0.00037703278718992,5274.9048629998,214.99935210352,213.86659376893,1323.15
0.059195923227443,0.21945206258218,0.019848147917,5276.4129471163,0.039453352413808,10666.467501807,0.00038200900852335,5276.4327952642,218.3550567963,217.01871235408,1323.15
0.072035107872932,0.22028520409703,0.020215649471305,5278.4987632465,0.040146876510684,10706.962345136,0.0003879882956026,5278.518978896,222.39804474149,220.83353916302,1323.15
0.087442129447518,0.22131623666581,0.020658341748091,5281.3297294284,0.040985867052851,10757.075683142,0.00039517277335762,5281.3503877701,227.26822696933,225.44852460782,1323.15
0.10593055533702,0.22258191880635,0.021191529961322,5285.1546797707,0.042000485608567,10818.594163583,0.00040380240106796,5285.1758713006,233.13398044266,231.0295766356,1323.15
0.12811666640443,0.22412608375324,0.021833713378577,5290.3024727278,0.043227458106973,10893.648300826,0.00041416464574972,5290.3243064412,240.19882080634,237.77871138352,1323.15
0.15473999968531,0.22600364324049,0.022606905437111,5297.2111411986,0.044710112908213,10984.907079704,0.00042658695714294,5297.233748104,248.70492407409,245.9342625888,1323.15
0.18668799962237,0.22827985671735,0.023537819561181,5306.4575505115,0.046501633274871,11095.542435747,0.00044146262108673,5306.4810883311,258.94617213833,255.7887722652,1323.15
0.22502559954685,0.23103183048764,0.024658476637529,5318.7994826411,0.048665698205466,11229.302120852,0.00045924726151466,5318.8241411177,271.27483577881,267.69251569776,1323.15
0.27103071945622,0.23435012056401,0.026007350529627,5335.2296835879,0.051278917706752,11390.587610014,0.00048046945791491,5335.2556909384,286.11417678694,282.0668970005,1323.15
0.32623686334746,0.23834047298603,0.027630665095725,5357.04497845,0.054433444673821,11584.538689486,0.00050573900080046,5357.0726091151,303.97271682609,299.41881613019,1323.15
0.39248423601695,0.24312559742771,0.029583953892632,5385.9339660399,0.058240122288573,11817.119662974,0.00053575528213815,5385.9635499938,325.46139617147,320.35798159415,1323.15
0.47198108322034,0.24884675115154,0.031933934849661,5424.087144081,0.062832273013945,12095.196339721,0.00057131589847069,5424.1190780159,351.31419752543,345.61775234578,1323.15
0.56737729986441,0.25566481498079,0.034760762576102,5474.3334249123,0.06837025618195,12426.588332141,0.00061332582481505,5474.3681856749,382.4129242853,376.0802074384,1323.15
0.6818527598373,0.26376041044021,0.038160734192626,5540.3065633335,0.075046949349089,12820.074749446,0.00066280803441919,5540.3447240676,419.81696815561,412.8062969914,1323.15
0.81922331180476,0.2733324030369,0.042249543690146,5626.643315088,0.083094355367609,13285.321449609,0.00072091736970225,5626.6855646317,464.79911126507,457.07218531471,1323.15
0.98406797416571,0.28459388125217,0.047166208177103,5739.2102738583,0.092791614937656,13832.685598262,0.00078896089927658,5739.2574400665,518.88871991709,510.4133250785,1323.15
1.1818815689988,0.29776438009092,0.05307782386972,5885.3441519262,0.10447479964393,14472.837694319,0.00086842976663058,5885.3972297501,583.92406657599,574.67832528831,1323.15
1.4192578827986,0.31305660624295,0.060185337081051,6074.0643225329,0.11854891880256,15216.116346439,0.00096104934550493,6074.1245078699,662.11581814044,652.09499663447,1323.15
1.7041094593583,0.33065507653315,0.068730520925477,6316.1702323128,0.13550253374767,16071.489994894,0.0010688563580863,6316.2389628337,756.12378863155,745.35073943026,1323.15
2.04593135123,0.35068296935802,0.079004332126538,6624.067528936,0.1559252340249,17044.945725647,0.0011943141924369,6624.1465332681,869.14887478584,857.68867387169,1323.15
2.456117621476,0.37315252511035,0.09135680610173,7011.081406123,0.18052807648525,18137.078482989,0.0013404823148437,7011.1727629291,1005.0419146658,993.020068147,1323.15
2.9483411457712,0.39789423580475,0.10620866111235,7489.9306370358,0.21016703239024,19339.64933129,0.0015112638513029,7490.0368456969,1168.4313481755,1156.0533125354,1323.15
3.5390093749255,0.42446186996155,0.12406483455822,8069.9833115936,0.245869569198,20630.969189481,0.0017117682430779,8070.1073764281,1364.8721336453,1352.4401362589,1323.15
4.2478112499105,0.45201589181934,0.14553025125125,8752.9564862944,0.28886464758637,21970.232421879,0.0019488439658688,8753.1020165457,1601.019219044,1588.9406103262,1323.15
5.0983734998927,0.47920085191531,0.17132820302525,9526.9747806475,0.34061654860688,23291.557407343,0.0022318575889525,9527.1461088506,1884.8297412346,1873.6092185485,1323.15
6.1190481998712,0.50406110120243,0.2023217969225,10359.586740658,0.40286303688859,24499.889823944,0.0025738033189082,10359.789062455,2225.7989835062,2216.0047796095,1323.15
7.3438578398454,0.52410230306655,0.23953899588536,11191.853988707,0.47765836795351,25473.992440549,0.0029927392716713,11192.093527703,2635.2358552647,2627.4270148496,1323.15
8.8136294078145,0.53675278677879,0.28420167400972,11938.827590336,0.56742092268893,26088.869201383,0.0035129965066724,11939.11179201,3126.5825370458,3121.1785683798,1323.15
10.577355289377,0.54090422521274,0.33775776214541,12509.430912763,0.6749794858985,26290.649866465,0.0041628418616737,12509.768670525,3715.768123306,3712.8195687585,1323.15
12.693826347253,0.94197445981119,0.39854047325871,17131.185500087,0.79011138122699,45784.668619123,0.003692566115237,17131.58404056,4384.4558211647,4346.1187473177,1323.15
15.233591616703,1.1590213356959,0.47625551082106,22676.7707552,0.94737279781594,56334.232021498,0.0039914870214082,22677.247010711,5239.4208038833,5211.1572812591,1323.15
18.281309940044,1.2270630707484,0.569803999982,26943.505828168,1.1372482698598,59641.400553727,0.0046567333248987,26944.075632168,6268.5740402136,6255.5940129816,1323.15
21.938571928053,1.2903408958989,0.68095684342471,30004.20893188,1.3606774625242,62717.019245164,0.0054332850052131,30004.889888723,7491.3977285747,7484.5977028525,1323.15
26.327286313664,1.3524190878995,0.81393503542997,32164.81817326,1.6271716137162,65734.329767356,0.0063465431873256,32165.632108296,8954.3282140487,8950.4862523218,1323.15
31.593743576396,1.4125052693042,0.97328372327832,33830.797735722,1.946064024882,68654.818614529,0.0074271400329146,33831.771019445,10707.367940024,10704.598798318,1323.15
37.913492291676,1.4702092742137,1.1644226351706,35300.727493205,2.3284168641956,71459.521773156,0.0087102512668375,35301.89191584,12810.140860538,12807.784352298,1323.15
45.497190750011,1.5251076326884,1.3937773756635,36696.587276127,2.7871924562605,74127.856486818,0.010237083291983,36697.981053503,15333.336858284,15331.344003329,1323.15
54.597628900013,1.5767927465751,1.6690002417661,38026.281475535,3.3377118767787,76640.011447282,0.012056494813034,38027.950475777,18361.141004583,18359.553482556,1323.15
65.518154680015,1.6249430302636,1.9992576050311,39266.207124434,3.9982948771669,78980.355985963,0.01422706373397,39268.206382039,21994.395130595,21993.183158524,1323.15
78.622785616018,1.6693487983836,2.3955529143583,40401.538487696,4.79094037127,81138.698345437,0.016819254705456,40403.934040611,26354.151271979,26353.241150029,1323.15
94.348342739222,1.7099122165162,2.8710952509809,41429.904344977,5.7420668259141,83110.283283772,0.019917776793238,41432.775440228,31585.726245951,31585.045948461,1323.15
113.21901128707,1.7466372066016,3.4417368006567,42354.530218897,6.883381554402,84895.301426871,0.023624358061591,42357.971955697,37863.514405876,37863.008088898,1323.15
135.86381354448,1.7796148703259,4.1264996659302,43180.267106276,8.2529312512379,86498.180772191,0.028061103176673,43184.393605942,45396.783251113,45396.408764076,1323.15
163.03757625338,1.8090063205567,4.9482097501282,43912.837164561,9.89636947092,87926.752210659,0.033374547412319,43917.785374311,54436.646963105,54436.371769706,1323.15
193.03757625338,1.8332187818828,5.8553789158172,44513.770538813,11.710720158968,89103.598893414,0.039231596373057,44519.625917729,64416.670062803,64416.462839006,1323.15
223.03757625338,1.8542188463268,6.7625428324027,45026.140770319,13.525049850603,90124.307025715,0.045052397296092,45032.903313152,74396.635415636,74396.438414578,1323.15
253.03757625338,1.8681811172606,7.6697131804699,45379.993374908,15.339405268164,90802.943204453,0.050904779302012,45387.663088088,84376.671523009,84376.55549923,1323.15
283.03757625338,1.8796566916712,8.5768773261032,45661.503608789,17.153735875989,91360.713498678,0.056751713339027,45670.080486115,94356.639395661,94356.536114438,1323.15
300,1.884550010685,9.0898020466352,45784.223357846,18.179589224868,91598.553269344,0.060067527897352,45793.313159893,99999.468487441,99999.3867017,1323.15
