git time,atomic_fraction_H_enclosure_2_at_interface,concentration_H_encl_1_inventory,concentration_H_encl_2_inventory,concentration_H_enclosure_1_at_interface,concentration_H_enclosure_2_at_interface,concentration_ratio_H2,mass_conservation_sum_encl1_encl2,pressure_H2_enclosure_1,pressure_H2_enclosure_1_at_interface,temperature
0,0.25,0.028340499165705,6075.625,0.056680998331411,12151.25,0.00051419400971743,6075.6533404992,300,300,1273.15
1,0.25000895623791,0.027624064942141,6075.6262566783,0.030322969415743,12151.685317944,0.00027507648784557,6075.6538807432,292.41614391431,160.49277698911,1273.15
2.2,0.25001506244478,0.027187114266436,6075.6271134843,0.030325642239544,12151.982110128,0.00027509737505186,6075.6543005986,287.79077715753,160.5069236549,1273.15
3.64,0.25002002464801,0.02683918430815,6075.6278098003,0.030327821924996,12152.223298017,0.0002751144177778,6075.6546489846,284.10774437553,160.51846024838,1273.15
5.368,0.25002460573773,0.026519642967505,6075.6284526762,0.030329833880585,12152.445961882,0.00027513014836144,6075.6549723192,280.72522095443,160.52910908475,1273.15
7.4416,0.25002914135723,0.026203434168767,6075.6290892172,0.030331825926249,12152.666415668,0.00027514572309221,6075.6552926513,277.37797434926,160.53965254229,1273.15
9.92992,0.25003379073084,0.025879144424618,6075.6297417785,0.03033386801745,12152.892398473,0.0002751616889384,6075.6556209229,273.94518642707,160.5504608798,1273.15
12.915904,0.25003864718746,0.025540480732634,6075.6304234743,0.030336001151418,12153.128446546,0.00027517836641029,6075.655963955,270.3602422452,160.56175108656,1273.15
16.4990848,0.25004377885585,0.025183698785538,6075.6311438893,0.030338255249697,12153.377871289,0.00027519598939485,6075.656327588,266.58350622151,160.57368153068,1273.15
20.79890176,0.25004924385118,0.024807423340745,6075.6319112111,0.030340655837066,12153.643497386,0.00027521475738736,6075.6567186345,262.60042064571,160.58638730919,1273.15
25.958682112,0.25005509660688,0.024413479402588,6075.6327331219,0.030343226824548,12153.927970578,0.00027523485725159,6075.6571466013,258.43030420717,160.59999497785,1273.15
32.1504185344,0.25006139126661,0.02400781801457,6075.633617277,0.03034599199936,12154.233922514,0.00027525647486649,6075.657625095,254.13615202256,160.61463043714,1273.15
39.58050224128,0.25006818438314,0.023600767833678,6075.6345716884,0.030348976210335,12154.564101943,0.00027527980439035,6075.6581724562,249.82729869032,160.63042520645,1273.15
48.496602689536,0.25007553837805,0.023206240011147,6075.635605216,0.03035220688785,12154.921542865,0.00027530506013835,6075.658811456,245.65100150983,160.64752446869,1273.15
59.195923227443,0.25008352786698,0.02284000216231,6075.636728463,0.030355716823154,12155.309871975,0.00027533249830299,6075.6595684652,241.77416948903,160.6661017807,1273.15
72.035107872932,0.25009225170627,0.022517370437795,6075.6379554769,0.030359549461777,12155.733894183,0.00027536245832228,6075.6604728474,238.35893262998,160.68638709008,1273.15
87.442129447518,0.25010185259131,0.022250664314609,6075.6393065146,0.030363767515333,12156.200545201,0.00027539543017648,6075.6615571789,235.53569947209,160.70871231553,1273.15
105.93055533702,0.25011254231058,0.022046819712645,6075.6408116076,0.030368464059207,12156.720119006,0.00027543214109627,6075.6628584273,233.37789059824,160.73357008452,1273.15
128.11666640443,0.25012462612744,0.021905762330811,6075.6425140152,0.030373773249258,12157.307452924,0.00027547363926189,6075.6644197776,231.8847194899,160.76167045434,1273.15
154.73999968531,0.25013851802519,0.021820253494906,6075.6444724112,0.03037987702778,12157.982668614,0.00027552134611217,6075.6662926647,230.97956074088,160.79397640538,1273.15
186.68799962237,0.25015474216175,0.021777616965018,6075.6467611559,0.030387005775003,12158.771242772,0.00027557706128222,6075.6685387729,230.52822927732,160.83170728926,1273.15
225.02559954685,0.25017392338409,0.02176300658154,6075.6494690639,0.030395434158877,12159.703546084,0.00027564292995537,6075.6712320705,230.37357021441,160.87631686278,1273.15
271.03071945622,0.25019677656055,0.021763056808242,6075.6526980461,0.030405476471035,12160.814324725,0.00027572140613145,6075.6744611029,230.37410189207,160.9294686021,1273.15
326.23686334746,0.25022410635928,0.021768455072301,6075.6565632749,0.030417486559933,12162.142689593,0.0002758152517308,6075.67833173,230.43124552982,160.9930353489,1273.15
392.48423601695,0.25025682442934,0.021774532448345,6075.6611958718,0.030431865421536,12163.732951388,0.00027592759540043,6075.6829704043,230.49557794692,161.06913948623,1273.15
471.98108322034,0.25029598256265,0.021780095899025,6075.6667479533,0.030449075829493,12165.636232457,0.00027606204611138,6075.6885280492,230.55447017724,161.16023037276,1273.15
567.37729986441,0.250342814122,0.021785604918423,6075.6733990029,0.030469660623634,12167.9124804,0.00027622283501611,6075.6951846078,230.61278622204,161.26918113975,1273.15
681.8527598373,0.25039877598969,0.021791797102426,6075.6813625521,0.030494261264158,12170.632506979,0.00027641495892169,6075.7031543492,230.67833394547,161.39938689432,1273.15
819.22331180476,0.25046558816311,0.021799160509128,6075.6908928664,0.030523635402272,12173.879912668,0.00027664431545136,6075.7126920269,230.7562797148,161.55485771688,1273.15
984.06797416571,0.25054527263061,0.02180797323356,6075.7022920008,0.030558674202741,12177.752976211,0.00027691783542036,6075.724099974,230.84956732114,161.74031034563,1273.15
1181.8815689988,0.2506401937832,0.021818473780384,6075.7159177324,0.030600420433527,12182.366618832,0.00027724362006247,6075.7377362062,230.96072146944,161.96126392098,1273.15
1419.2578827986,0.2507531002929,0.021830949780804,6075.7321926236,0.030650087323588,12187.854439736,0.00027763108273139,6075.7540235734,231.09278689652,162.22413979573,1273.15
1704.1094593583,0.25088716579691,0.021845750511177,6075.7516142011,0.030709077058317,12194.370693559,0.00027809108577212,6075.7734599516,231.24946088753,162.53635942735,1273.15
2045.93135123,0.25104602392047,0.021863280539786,6075.7747661128,0.030778996995492,12202.091992655,0.0002786360570346,6075.7966293933,231.43502602356,162.90643020539,1273.15
2456.117621476,0.2512337914957,0.021883997975512,6075.8023300506,0.030861670952383,12211.218435649,0.0002792800647435,6075.8242140486,231.65433164276,163.34400519167,1273.15
2948.3411457712,0.25145507156186,0.021908415073085,6075.8350981109,0.030959141913851,12221.973753264,0.00028003882167062,6075.857006526,231.91280024732,163.85989745365,1273.15
3539.0093749255,0.2517149247743,0.021937095980142,6075.8739850877,0.031073661195684,12234.603918655,0.00028092957950339,6075.8959221837,232.21640365482,164.46602270834,1273.15
4247.8112499105,0.25201879449036,0.021970649134229,6075.920039986,0.031207657582374,12249.373506204,0.00028197086298693,6075.9420106351,232.57158251626,165.17523597541,1273.15
5098.3734998927,0.25237236752282,0.022009712527079,6075.9744558351,0.031363678443091,12266.558923447,0.00028318198255106,6075.9964655476,232.98509033016,166.00101991699,1273.15
6119.0481998712,0.25278135020967,0.02205492966101,6076.0385767363,0.031544293673777,12286.437526941,0.00028458225670257,6076.060631666,233.46373892771,166.95697642447,1273.15
7343.8578398454,0.25325113952485,0.022106913870235,6076.1139010937,0.031751953156364,12309.271636605,0.00028618987658219,6076.1360080076,234.01402079382,168.05607218161,1273.15
8813.6294078145,0.25378637375837,0.022166199136167,6076.2020803096,0.031988790284506,12335.286696525,0.00028802036262445,6076.2242465087,234.64158841976,169.30959876961,1273.15
10577.355289377,0.25439035999835,0.022233176859072,6076.3049131081,0.032256369407537,12364.64344772,0.00029008460788753,6076.3271462849,235.35058499579,170.72583594384,1273.15
12693.826347253,0.255064399942,0.022308020668494,6076.424337332,0.03255538550497,12397.405159181,0.00029238658651838,6076.4466453527,236.14284848753,172.30846207729,1273.15
15233.591616703,0.25580707452532,0.022390605648785,6076.5624237822,0.032885341553491,12433.502857303,0.00029492093876349,6076.5848143878,237.01705659312,174.05484653541,1273.15
18281.309940044,0.25661360157918,0.022480434399379,6076.7213804487,0.033244253184107,12472.704104756,0.00029767082521148,6076.7438608831,237.96794405,175.95448649155,1273.15
21938.571928053,0.25747544237391,0.022576589461384,6076.903579882,0.033628458629957,12514.593876584,0.00030060664843637,6076.9261564714,238.98579904376,177.98800102285,1273.15
26327.286313664,0.25838038392926,0.022677737798169,6077.1116261917,0.034032636550481,12558.578560882,0.00030368640633552,6077.1343039295,240.05651063773,180.12722544949,1273.15
31593.743576396,0.25931333070263,0.022782214418531,6077.3484789225,0.034450139911911,12603.924438801,0.00030685845536247,6077.3712611369,241.16245397081,182.33697849048,1273.15
37913.492291676,0.26025795665377,0.022888203614005,6077.6176456648,0.034873719691039,12649.837983157,0.00031006717385889,6077.6405338684,242.28440875559,184.57889266771,1273.15
45497.190750011,0.26119915822482,0.022994012942324,6077.9234409902,0.035296618961618,12695.585085517,0.00031326130037185,6077.9464350031,243.40445954617,186.81720506354,1273.15
54597.628900013,0.2621259152537,0.023098397141359,6078.2712863652,0.035713866379245,12740.630110906,0.00031640359966105,6078.2943847623,244.50942454793,189.02560345053,1273.15
65518.154680015,0.26303380351349,0.023200846946891,6078.6680004971,0.036123429513678,12784.758019773,0.00031947929600111,6078.6912013441,245.59391291491,191.19333062449,1273.15
78622.785616018,0.26392620830606,0.023301734123062,6079.1220158611,0.036526793976642,12828.133354716,0.00032250007656235,6079.1453175953,246.66185997803,193.32824960001,1273.15
94348.342739222,0.26481350066408,0.02340222655648,6079.6434714562,0.036928624317124,12871.260199777,0.00032550120034929,6079.6668736827,247.7256284688,195.45504880421,1273.15
113219.01128707,0.26571015441255,0.023503967970317,6080.2441809782,0.037335484951486,12914.842055222,0.00032853167441477,6080.2676849461,248.80261811435,197.60847224243,1273.15
135863.81354448,0.26663076113331,0.023608628575189,6080.937542676,0.037754045707409,12959.588144885,0.00033164075664261,6080.9611513046,249.91050902615,199.82382183883,1273.15
163037.57625338,0.26758655246467,0.023717508803519,6081.7385012077,0.038189499381453,13006.044382545,0.0003348662274597,6081.7622187165,251.06306700715,202.1285819182,1273.15
195646.09150405,0.26858379989287,0.023831353222722,6082.6636536827,0.0386448186573,13054.515593793,0.00033822904005675,6082.6874850359,252.26817371897,204.53848623843,1273.15
234776.30980486,0.26962435186029,0.023950406873951,6083.7315137112,0.039120981136569,13105.091622169,0.00034173519394959,6083.7554641181,253.52842305897,207.05870902889,1273.15
281732.57176583,0.27070736296488,0.024074608814495,6084.9628633053,0.039617742250623,13157.731376908,0.00034538161370774,6084.9869379141,254.84316991454,209.68795584182,1273.15
338080.086119,0.27183088570979,0.024203772022321,6086.3810966952,0.040134353657537,13212.340199925,0.00034916153931466,6086.4053004673,256.21043455307,212.42226586875,1273.15
405697.1033428,0.27299259384102,0.024337665311449,6088.0125029951,0.0406698902856,13268.805023643,0.0003530669733256,6088.0368406604,257.62776974196,215.25674290953,1273.15
486837.52401136,0.27418977165252,0.024476011335815,6089.8864952623,0.04122324227621,13326.993851171,0.00035708865136116,6089.9109712736,259.09223961834,218.18551272781,1273.15
584206.02881363,0.27541907737327,0.024618458250871,6092.0358188643,0.041793001754441,13386.744255728,0.0003612152537882,6092.0604373226,260.60011971131,221.20112375269,1273.15
701048.23457636,0.27667640984735,0.024764562880013,6094.4967588925,0.042377395576256,13447.85690063,0.00036543296599988,6094.5215234554,262.14671874919,224.29419112457,1273.15
841258.88149163,0.27795691413426,0.024913789762437,6097.309346197,0.042974281526007,13510.095811496,0.00036972550438995,6097.3342599868,263.72636858053,227.45337656937,1273.15
1009511.65779,0.27925505167664,0.025065517703736,6100.5175554505,0.04358117449986,13573.191786743,0.0003740743563635,6100.5426209683,265.33249351586,230.6655269816,1273.15
1211414.9893479,0.28056469288764,0.025219049065262,6104.1694931659,0.044195283649934,13636.846897804,0.00037845909216325,6104.194712215,266.95770866075,233.91587102009,1273.15
1453698.9872175,0.28187923021683,0.025373621664151,6108.3175790675,0.044813559978307,13700.739984689,0.0003828577417701,6108.3429526891,268.59394588422,237.18827101254,1273.15
1744439.784661,0.28319171618823,0.025528423913714,6113.0187276035,0.045432756894949,13764.533365329,0.00038724725193474,6113.0442560274,270.23261408824,240.46554347529,1273.15
2093328.7415933,0.28449502415044,0.025682613042323,6118.3345390237,0.046049503090333,13827.880648832,0.0003916040160247,6118.3602216367,271.8647920648,243.72984481193,1273.15
2511995.4899119,0.28578202492763,0.025835335671914,6124.3315121378,0.046660384847186,13890.435321608,0.00039590445444645,6124.3573474734,273.48144633081,246.96310697122,1273.15
3014395.5878943,0.28704577070297,0.025985749781073,6131.0812933195,0.047262033891261,13951.859685018,0.00040012561746343,6131.1072790693,275.07366361971,250.14750242183,1273.15
3617275.7054731,0.2882796763963,0.026133046905626,6138.6609780229,0.047851216192637,14011.833671242,0.00040424577883419,6138.6871110698,276.63288588702,253.26591415797,1273.15
4340731.8465678,0.28947768833858,0.026276473326076,6147.1534817494,0.04842491671479,14070.063041696,0.00040824498721304,6147.1797582227,278.15113459123,256.30238425752,1273.15
5208879.2158813,0.29063443050988,0.026415348999802,6156.6479968975,0.048980415142968,14126.286494933,0.00041210554373556,6156.6744122465,279.62121110167,259.24251469557,1273.15
6250656.0590576,0.29174532008203,0.026549083133548,6167.2405502613,0.049515348173798,14180.281282587,0.00041581237894923,6167.2670993445,281.03686154203,262.07379702957,1273.15
7500788.2708691,0.29280664636132,0.026677185548731,6179.0346733152,0.050027754976196,14231.867046392,0.00041935330985079,6179.0613505008,282.39289709843,264.78585301384,1273.15
9000946.9250429,0.29381561019055,0.0267992733394,6192.142194187,0.050516103822828,14280.907733312,0.00042271916739481,6192.1689934603,283.6852644977,267.37057555407,1273.15
10801137.310052,0.2947703240683,0.026915072715884,6206.6841568684,0.050979299464159,14327.31160134,0.00042590379524299,6206.7110719411,284.91106552337,269.82216773646,1273.15
12961365.772062,0.29566977626569,0.027024416314101,6222.791870231,0.05141667236504,14371.029475394,0.00042890393039393,6222.8188946473,286.06852853322,272.13708585941,1273.15
15553639.926474,0.296513764692,0.02712723658138,6240.6080872605,0.05182795224719,14412.051532855,0.0004317189844421,6240.635214497,287.15693844454,274.3138993997,1273.15
18664368.911769,0.29730280791261,0.027223556086099,6260.2883138992,0.052213229326799,14450.402978592,0.00043435074967267,6260.3155374553,288.1765341562,276.35308585169,1273.15
22397243.694123,0.298038041438,0.027313475720433,6282.002247098,0.052572907124508,14486.139004094,0.00043680305660119,6282.0295605737,289.12838366819,278.25678096097,1273.15
26876693.432947,0.29872110721877,0.027397161773285,6305.9353430681,0.052907650756069,14519.339416368,0.00043908140902619,6305.9627402299,290.01424724133,280.02850503825,1273.15
32252033.119537,0.29935404337869,0.027474832762475,6332.2905190374,0.053218334260042,14550.103278421,0.00044119261973597,6332.3179938702,290.83643800871,281.67288417651,1273.15
38702440.743444,0.29993917992134,0.027546746771531,6361.2899944395,0.053505989943929,14578.543840077,0.00044314446580497,6361.3175411863,291.5976879285,283.19538215126,1273.15
46442929.892133,0.30047904527645,0.027613189936557,6393.1772773635,0.053771762330702,14604.783995662,0.00044494537959037,6393.2048905534,292.30102591105,284.60205666969,1273.15
55731516.87056,0.30097629079896,0.027674467008383,6428.2192808636,0.054016870406544,14628.952614284,0.00044660419912268,6428.2469553306,292.94967791398,285.89935955632,1273.15
65731516.87056,0.3013906605463,0.027725589306466,6462.881884081,0.054221359450504,14649.093055853,0.00044798660976895,6462.9096096703,293.49083596964,286.98167488234,1273.15
75731516.87056,0.3017201932846,0.027766282865964,6495.0227135354,0.054384133587633,14665.109994598,0.00044908603647786,6495.0504798183,293.92160000728,287.84320242378,1273.15
85731516.87056,0.3019906895808,0.027799711250426,6525.121763657,0.054517847053217,14678.257467075,0.00044998853241907,6525.1495633683,294.2754581126,288.55091825194,1273.15
95731516.87056,0.30221857571376,0.027827891435429,6553.5280330279,0.054630567739242,14689.333872568,0.00045074888685003,6553.5558609193,294.57376109772,289.14752393643,1273.15
105731516.87056,0.30241464337149,0.027852149904841,6580.4990113169,0.054727601575339,14698.863741071,0.00045140309630588,6580.5268634668,294.83055053467,289.66110259041,1273.15
115731516.87056,0.3025862951381,0.027873397347396,6606.2288679098,0.054812591312922,14707.206875187,0.0004519758534818,6606.2567413071,295.05546657193,290.1109344922,1273.15
125731516.87056,0.30273882552386,0.027892285611202,6630.8671899165,0.054888144342141,14714.620614587,0.00045248481975248,6630.8950822021,295.25540938553,290.51081998175,1273.15
135731516.87056,0.3028761495345,0.027909297038833,6654.531339241,0.054956190031706,14721.295248124,0.00045294305515435,6654.559248538,295.43548484078,290.87097078132,1273.15
145731516.87056,0.30300123003722,0.027924796891636,6677.314789356,0.055018189425856,14727.374785959,0.00045336044377653,6677.3427141529,295.5995594329,291.19911987524,1273.15
155731516.87056,0.30311634244682,0.027939065830602,6699.2929503459,0.055075265167687,14732.969824628,0.00045374457657045,6699.3208894118,295.75060411509,291.50120916536,1273.15
165731516.87056,0.30322324956516,0.027952321383318,6720.5273831296,0.055128287366885,14738.166045115,0.00045410133450102,6720.555335451,295.89092153827,291.78184394999,1273.15
175731516.87056,0.30332332422323,0.027964733013425,6741.0689340879,0.055177933877506,14743.03017387,0.00045443529761293,6741.0968988209,296.02230556967,292.04461196088,1273.15
185731516.87056,0.30341763935614,0.027976433198255,6760.9601110815,0.055224734608472,14747.614360905,0.00045475004548222,6760.9880875147,296.14615855576,292.29231788884,1273.15
195731516.87056,0.30350703613686,0.027987525815704,6780.2369047641,0.055269105071063,14751.959491432,0.00045504838449105,6780.2648922899,296.26358010206,292.52716094329,1273.15
205731516.87056,0.30359217633447,0.027998092594742,6798.9301928562,0.055311372180916,14756.097730737,0.00045533252248723,6798.9581909488,296.37543535531,292.75087141645,1273.15
215731516.87056,0.30367358281972,0.02800819810946,6817.0668256761,0.055351794234211,14760.054492953,0.00045560420391025,6817.0948338742,296.48240786831,292.96481641293,1273.15
225731516.87056,0.3037516709505,0.028017893651224,6834.6704660619,0.055390576396263,14763.849966549,0.00045586481449642,6834.6984839556,296.58504058878,293.17008182741,1273.15
235731516.87056,0.30382677287153,0.028027220228312,6851.7622394576,0.05542788270008,14767.500295421,0.0004561154623477,6851.7902666778,296.68376761226,293.36753585036,1273.15
245731516.87056,0.30389915629933,0.028036210885919,6868.3612372145,0.055463845326348,14771.018491929,0.00045635704060396,6868.3892734254,296.77893874056,293.55787808493,1273.15
255731516.87056,0.30396903902287,0.028044892497762,6884.4849064759,0.055498571769873,14774.415141707,0.00045659027582256,6884.5129513684,296.87083844697,293.74167747739,1273.15
265731516.87056,0.3040366000851,0.028053287148096,6900.1493525088,0.055532150367616,14777.698947136,0.00045681576528506,6900.177405796,296.95970050566,293.91940157576,1273.15
275731516.87056,0.30410198839984,0.028061413197052,6915.3695735046,0.05556465456007,14780.877146174,0.00045703400574756,6915.3976349178,297.04571926887,294.09143908433,1273.15
