time,atomic_fraction_H_enclosure_2_at_interface,concentration_H_encl_1_inventory,concentration_H_encl_2_inventory,concentration_H_enclosure_1_at_interface,concentration_H_enclosure_2_at_interface,concentration_ratio_H2,mass_conservation_sum_encl1_encl2,pressure_H2_enclosure_1,pressure_H2_enclosure_1_at_interface,temperature
0,0.35,0.24492893807703,8505.875,0.48985787615406,17011.75,0.0037557406896147,8506.1199289381,3000,3000,1473.15
0.001,0.33890752199271,0.24595435693079,8489.8499411171,0.50365985872782,16472.600106456,0.0039242463371352,8490.095895474,3012.5597921806,3084.5264509093,1473.15
0.0022,0.32761813047392,0.24756547251966,8473.0969333291,0.50483778312594,15923.879231685,0.0040006210281894,8473.3444988016,3032.2934618914,3091.7403253133,1473.15
0.00364,0.31703042739769,0.24756776114444,8456.599751406,0.50309697898293,15409.263923665,0.004052852167559,8456.8473191672,3032.3214939989,3081.0792485331,1473.15
0.005368,0.30774250081193,0.24724670216437,8440.9703439565,0.50095050821549,14957.824251964,0.0040960062293931,8441.2175906587,3028.38901894,3067.9337779471,1473.15
0.0074416,0.30014162239805,0.24688260763152,8426.5635105357,0.49898724776895,14588.383556657,0.0041312916974754,8426.8103931433,3023.9294250384,3055.9103286441,1473.15
0.00992992,0.29439876833198,0.24657177811276,8413.4725366014,0.49741482871296,14309.252134776,0.0041582467813288,8413.7191083795,3020.1222450311,3046.2804800745,1473.15
0.012915904,0.29045483987489,0.24634550196921,8401.5142306404,0.49628205662845,14117.557492119,0.0041768491510798,8401.7605761423,3017.3507128635,3039.3431286121,1473.15
0.0164990848,0.28804176100646,0.24620141957633,8390.255474126,0.49554123289141,14000.269793719,0.004188047460021,8390.5016755456,3015.5859267911,3034.8061571366,1473.15
0.02079890176,0.28675333659783,0.24611887707742,8379.0988875529,0.49508844425815,13937.645925338,0.0041936103549616,8379.34500643,3014.5749090703,3032.033177532,1473.15
0.025958682112,0.2861514446704,0.24607097629376,8367.4102350906,0.49480329540391,13908.390968205,0.0041956005940219,8367.6563060669,3013.9881986877,3030.2868617037,1473.15
0.0321504185344,0.2858699140534,0.24603426184476,8354.6425805005,0.49458380334867,13894.707172565,0.0041958039809748,8354.8886147624,3013.5385035726,3028.9426429052,1473.15
0.03958050224128,0.28567550431619,0.24599423776259,8340.4086627498,0.49436653487084,13885.257887288,0.0041953875907598,8340.6546569876,3013.0482705791,3027.6120417957,1473.15
0.048496602689536,0.28546795563282,0.24594583160183,8324.4796676632,0.49412742349568,13875.169983533,0.0041948825060038,8324.7256134948,3012.4553701101,3026.1476698618,1473.15
0.059195923227443,0.28523495440395,0.24589021303025,8306.7288666063,0.49386844960291,13863.844958804,0.0041943960527978,8306.9747568193,3011.7741287832,3024.5616553948,1473.15
0.072035107872932,0.28499784638147,0.24583078278444,8287.0626752229,0.493601239435,13852.320323372,0.004193870139585,8287.3085060057,3011.046200353,3022.9252001233,1473.15
0.087442129447518,0.28477668045242,0.24577055779048,8265.3736609905,0.49333638219573,13841.57055339,0.0041932471384954,8265.6194315482,3010.3085374891,3021.3031547169,1473.15
0.10593055533702,0.28458005717207,0.24571140945174,8241.5230798526,0.49308023823589,13832.013678849,0.0041925175791117,8241.7687912621,3009.5840619837,3019.7344713968,1473.15
0.12811666640443,0.28440856186879,0.24565433402744,8215.3407010468,0.49283592355534,13823.678149633,0.0041917034473756,8215.5863553809,3008.8849764683,3018.2382332484,1473.15
0.15473999968531,0.28425988326945,0.24559986701641,8186.6282671909,0.49260490068341,13816.451626312,0.004190834087176,8186.8738670579,3008.217839974,3016.8233971305,1473.15
0.18668799962237,0.2841312482491,0.24554830785572,8155.1610241128,0.49238783059936,13810.199321148,0.0041899354992545,8155.4065724207,3007.5863201411,3015.4940110293,1473.15
0.22502559954685,0.28401999200446,0.24549980515071,8120.6874535615,0.49218487998868,13804.791711377,0.0041890287287133,8120.9329533666,3006.9922371545,3014.2510957641,1473.15
0.27103071945622,0.28392364940134,0.24545439860674,8082.928276645,0.4919958643305,13800.108979152,0.0041881303892923,8083.1737310436,3006.4360773435,3013.0935212876,1473.15
0.32623686334746,0.28384000090127,0.24541205204047,8041.575160686,0.49182036160068,13796.043243806,0.0041872532784557,8041.8205727381,3005.9173975182,3012.0187030289,1473.15
0.39248423601695,0.28376710210175,0.2453726838366,7996.2889317698,0.49165782023996,13792.499997656,0.0041864070693598,7996.5343044537,3005.4351980177,3011.0232631148,1473.15
0.47198108322034,0.28370332615564,0.24533618662737,7946.6967721828,0.49150762726008,13789.400167795,0.0041855985720752,7946.9421083695,3004.9881637532,3010.1034474671,1473.15
0.56737729986441,0.28364737629951,0.2453024059655,7892.3902934887,0.4913690147143,13786.680725037,0.00418483084123,7892.6355958947,3004.5744029849,3009.2545530069,1473.15
0.6818527598373,0.28359814522269,0.24527105561604,7832.9344909872,0.49124071442929,13784.287848549,0.0041841012704312,7833.1797620429,3004.190409778,3008.4688131551,1473.15
0.81922331180476,0.28355441312741,0.24524160814147,7767.9085994767,0.49112051526272,13782.162250058,0.0041834000460697,7768.1538410848,3003.8297238403,3007.7326863777,1473.15
0.98406797416571,0.28351459944464,0.24521326254195,7697.0028214069,0.49100512961733,13780.227106007,0.0041827108389064,7697.2480346694,3003.4825341647,3007.0260386887,1473.15
1.1818815689988,0.28347683098506,0.24518507483812,7620.1790553082,0.49089071252807,13778.391370029,0.0041820147207226,7620.424240383,3003.1372784665,3006.3253226555,1473.15
1.4192578827986,0.28343936210818,0.24515623220628,7537.8715926515,0.49077395558616,13776.570195268,0.0041812963835343,7538.1167488837,3002.7840009151,3005.6102768376,1473.15
1.7041094593583,0.28340109861802,0.24512634269593,7451.173289581,0.49065324368813,13774.710398329,0.0041805501327814,7451.4184159237,3002.417900724,3004.8710099773,1473.15
2.04593135123,0.28336190800914,0.24509559592491,7361.9434583116,0.49052929608979,13772.805538784,0.0041797830668776,7362.1885539075,3002.0413004178,3004.1119269593,1473.15
2.456117621476,0.28332257609685,0.24506473371451,7272.7892772463,0.49040504753648,13770.893811188,0.004179014392376,7273.0343419801,3001.6632861582,3003.3510008252,1473.15
2.9483411457712,0.28328450098362,0.24503487514183,7186.8984682274,0.49028494731669,13769.043170309,0.0041782717154694,7187.1435031026,3001.2975649056,3002.6154800203,1473.15
3.5390093749255,0.28324931109325,0.24500728591591,7107.7217941969,0.49017403581708,13767.332765687,0.004177585993389,7107.9668014828,3000.9596396346,3001.936233008,1473.15
4.2478112499105,0.28321853219045,0.24498315470082,7038.5218940322,0.49007704903265,13765.836757117,0.0041769863575787,7038.7668771869,3000.6640696385,3001.3422640888,1473.15
5.0983734998927,0.2831933242096,0.24496339308701,6981.8382580457,0.48999761780638,13764.611523207,0.0041764952250317,6982.0832214388,3000.4220204879,3000.855809363,1473.15
6.1190481998712,0.28317427349484,0.24494846606345,6938.9750372306,0.4899375891843,13763.685563217,0.0041761240395118,6939.2199856967,3000.2391875771,3000.4881805568,1473.15
7.3438578398454,0.28316126488978,0.24493828616732,6909.673601118,0.48989660257259,13763.053279968,0.004175870596076,6909.9185394042,3000.1144996222,3000.2371693123,1473.15
8.8136294078145,0.28315349588615,0.24493222338312,6892.1330621975,0.48987212896803,13762.675667547,0.0041757192677919,6892.3779944209,3000.0402399093,3000.087287444,1473.15
10.577355289377,0.28314967109368,0.24492925876726,6883.4478358934,0.4898600851528,13762.489763508,0.0041756448071692,6883.6927651522,3000.0039279584,3000.013528406,1473.15
12.693826347253,0.28314833544089,0.24492824732016,6880.3557691976,0.48985588493096,13762.424844104,0.0041756188522867,6880.6006974449,2999.9915392986,2999.9878053011,1473.15
15.233591616703,0.28314822417387,0.24492819381139,6880.0218390517,0.48985554221972,13762.419435971,0.004175616751388,6880.2667672456,2999.9908838991,2999.9857064602,1473.15
18.281309940044,0.28314848872396,0.24492843073944,6880.5434435189,0.4898563827146,13762.432294428,0.0041756219652416,6880.7883719497,2999.9937859006,2999.9908538403,1473.15
21.938571928053,0.28314872443758,0.24492864020048,6881.0122840573,0.48985713121991,13762.443751288,0.0041756266075836,6881.2572126975,2999.9963514737,2999.9954378554,1473.15
26.327286313664,0.28314883866577,0.24492874998051,6881.2189667847,0.48985749589726,13762.44930335,0.0041756288738877,6881.4638955346,2999.9976961091,2999.9976712217,1473.15
31.593743576396,0.28314887322854,0.24492879369134,6881.2554772612,0.48985760870923,13762.450983273,0.0041756295806655,6881.5004060549,2999.998231499,2999.9983621076,1473.15
37.913492291676,0.28314888178192,0.24492881416152,6881.240574661,0.48985763890014,13762.45139901,0.0041756297749492,6881.4855034752,2999.9984822269,2999.9985470035,1473.15
45.497190750011,0.28314888897785,0.24492883127372,6881.2283121347,0.48985766427619,13762.451748768,0.0041756299381993,6881.473240966,2999.9986918249,2999.9987024122,1473.15
54.597628900013,0.283148898214,0.24492884808658,6881.2253487217,0.48985769563514,13762.452197691,0.004175630137405,6881.4702775698,2999.9988977564,2999.9988944614,1473.15
65.518154680015,0.28314890722853,0.24492886313567,6881.2258312208,0.48985772592206,13762.452635843,0.0041756303291067,6881.4707600839,2999.9990820844,2999.9990799454,1473.15
78.622785616018,0.28314891482183,0.24492887574056,6881.2264163219,0.48985775141779,13762.453004915,0.004175630490447,6881.4713451977,2999.9992364748,2999.999236087,1473.15
94.348342739222,0.28314892103909,0.24492888615758,6881.2266574458,0.48985777231653,13762.453307105,0.004175630622748,6881.471586332,2999.9993640672,2999.9993640756,1473.15
113.21901128707,0.28314892618372,0.24492889480974,6881.2267774412,0.4898577896177,13762.45355716,0.0041756307322919,6881.471706336,2999.9994700428,2999.9994700318,1473.15
135.86381354448,0.28314893047066,0.24492890201969,6881.2268773082,0.48985780403482,13762.453765526,0.0041756308235758,6881.4718062103,2999.9995583534,2999.9995583255,1473.15
163.03757625338,0.28314893404511,0.24492890802955,6881.2269652945,0.48985781605555,13762.453939262,0.0041756308996861,6881.4718942025,2999.9996319649,2999.9996319431,1473.15
195.64609150405,0.28314893702396,0.24492891303789,6881.2270391535,0.48985782607341,13762.45408405,0.0041756309631153,6881.4719680665,2999.9996933093,2999.9996932948,1473.15
234.77630980486,0.28314893950614,0.24492891721135,6881.2271003961,0.48985783442108,13762.454204696,0.0041756310159698,6881.4720293133,2999.9997444277,2999.9997444178,1473.15
281.73257176583,0.2831489415745,0.24492892068914,6881.2271512615,0.48985784137715,13762.454305229,0.0041756310600134,6881.4720801822,2999.9997870252,2999.9997870184,1473.15
338.080086119,0.28314894329807,0.24492892358724,6881.2271935626,0.4898578471737,13762.454389003,0.0041756310967153,6881.4721224862,2999.9998225225,2999.9998225177,1473.15
405.6971033428,0.28314894473432,0.24492892600229,6881.227228755,0.48985785200404,13762.454458812,0.0041756311272996,6881.472157681,2999.9998521031,2999.9998520998,1473.15
486.83752401136,0.28314894593117,0.2449289280148,6881.2272580409,0.48985785602923,13762.454516985,0.004175631152786,6881.4721869689,2999.9998767533,2999.999876751,1473.15
584.20602881363,0.28314894692852,0.24492892969188,6881.2272824173,0.48985785938351,13762.454565461,0.0041756311740244,6881.472211347,2999.9998972949,2999.9998972933,1473.15
701.04823457636,0.28314894775963,0.24492893108944,6881.2273027112,0.48985786217869,13762.454605857,0.0041756311917228,6881.4722316423,2999.9999144128,2999.9999144117,1473.15
841.25888149163,0.28314894845221,0.24492893225405,6881.2273196091,0.48985786450798,13762.45463952,0.0041756312064713,6881.4722485414,2999.9999286776,2999.9999286768,1473.15
1009.51165779,0.28314894902935,0.24492893322456,6881.2273336812,0.48985786644904,13762.454667572,0.0041756312187616,6881.4722626144,2999.9999405648,2999.9999405643,1473.15
1211.4149893479,0.2831489495103,0.24492893403332,6881.2273454014,0.48985786806657,13762.454690948,0.0041756312290034,6881.4722743354,2999.9999504708,2999.9999504704,1473.15
1453.6989872175,0.28314894991108,0.24492893470728,6881.2273551637,0.48985786941451,13762.454710428,0.0041756312375383,6881.4722840984,2999.9999587257,2999.9999587255,1473.15
1744.439784661,0.28314895024507,0.24492893526891,6881.2273632958,0.48985787053778,13762.454726662,0.0041756312446506,6881.4722922311,2999.9999656048,2999.9999656046,1473.15
2093.3287415933,0.28314895052339,0.24492893573693,6881.2273700703,0.48985787147384,13762.454740189,0.0041756312505775,6881.4722990061,2999.9999713374,2999.9999713373,1473.15
2511.9954899119,0.28314895075532,0.24492893612695,6881.2273757143,0.48985787225388,13762.454751462,0.0041756312555166,6881.4723046504,2999.9999761145,2999.9999761144,1473.15
3014.3955878943,0.28314895094859,0.24492893645196,6881.2273804165,0.48985787290392,13762.454760856,0.0041756312596324,6881.472309353,2999.9999800955,2999.9999800954,1473.15
3617.2757054731,0.28314895110966,0.24492893672281,6881.2273843343,0.48985787344561,13762.454768685,0.0041756312630623,6881.472313271,2999.9999834129,2999.9999834128,1473.15
4340.7318465678,0.28314895124387,0.24492893694851,6881.2273875986,0.48985787389702,13762.454775208,0.0041756312659206,6881.4723165355,2999.9999861774,2999.9999861774,1473.15
5208.8792158813,0.28314895135572,0.2449289371366,6881.2273903185,0.4898578742732,13762.454780645,0.0041756312683024,6881.4723192557,2999.9999884812,2999.9999884812,1473.15
6250.6560590576,0.28314895144893,0.24492893729334,6881.2273925849,0.48985787458668,13762.454785175,0.0041756312702873,6881.4723215222,2999.999990401,2999.999990401,1473.15
7500.7882708691,0.2831489515266,0.24492893742395,6881.2273944733,0.48985787484791,13762.45478895,0.0041756312719414,6881.4723234107,2999.9999920008,2999.9999920008,1473.15
9000.9469250429,0.28314895159133,0.2449289375328,6881.2273960469,0.4898578750656,13762.454792097,0.0041756312733197,6881.4723249845,2999.999993334,2999.999993334,1473.15
10801.137310052,0.28314895164527,0.24492893762351,6881.2273973582,0.48985787524701,13762.454794718,0.0041756312744684,6881.4723262958,2999.999994445,2999.999994445,1473.15
12961.365772062,0.28314895169022,0.24492893769909,6881.2273984508,0.48985787539819,13762.454796903,0.0041756312754256,6881.4723273885,2999.9999953709,2999.9999953709,1473.15
15553.639926474,0.28314895172767,0.24492893776208,6881.2273993613,0.48985787552417,13762.454798723,0.0041756312762233,6881.4723282991,2999.9999961424,2999.9999961424,1473.15
18664.368911769,0.28314895175889,0.24492893781457,6881.22740012,0.48985787562915,13762.454800241,0.004175631276888,6881.4723290578,2999.9999967853,2999.9999967853,1473.15
22397.243694123,0.2831489517849,0.24492893785832,6881.2274007523,0.48985787571663,13762.454801505,0.0041756312774419,6881.4723296902,2999.9999973211,2999.9999973211,1473.15
26876.693432947,0.28314895180657,0.24492893789477,6881.2274012791,0.48985787578954,13762.454802559,0.0041756312779036,6881.472330217,2999.9999977676,2999.9999977676,1473.15
32252.033119537,0.28314895182464,0.24492893792515,6881.2274017182,0.48985787585029,13762.454803437,0.0041756312782882,6881.4723306561,2999.9999981397,2999.9999981397,1473.15
38702.440743444,0.28314895183969,0.24492893795046,6881.227402084,0.48985787590092,13762.454804168,0.0041756312786088,6881.472331022,2999.9999984497,2999.9999984497,1473.15
46442.929892133,0.28314895185224,0.24492893797156,6881.2274023889,0.48985787594311,13762.454804778,0.004175631278876,6881.4723313269,2999.9999987081,2999.9999987081,1473.15
55731.51687056,0.28314895186269,0.24492893798913,6881.227402643,0.48985787597827,13762.454805286,0.0041756312790986,6881.472331581,2999.9999989234,2999.9999989234,1473.15
66877.821244672,0.2831489518714,0.24492893800378,6881.2274028547,0.48985787600757,13762.454805709,0.0041756312792841,6881.4723317927,2999.9999991028,2999.9999991028,1473.15
80253.386493606,0.28314895187866,0.24492893801599,6881.2274030312,0.48985787603198,13762.454806062,0.0041756312794387,6881.4723319692,2999.9999992524,2999.9999992524,1473.15
96304.064792327,0.28314895188471,0.24492893802617,6881.2274031782,0.48985787605233,13762.454806356,0.0041756312795675,6881.4723321162,2999.999999377,2999.999999377,1473.15
115564.87875079,0.28314895188975,0.24492893803464,6881.2274033007,0.48985787606929,13762.454806601,0.0041756312796749,6881.4723322387,2999.9999994808,2999.9999994808,1473.15
138677.85550095,0.28314895189395,0.24492893804171,6881.2274034028,0.48985787608341,13762.454806806,0.0041756312797643,6881.4723323408,2999.9999995673,2999.9999995673,1473.15
166413.42760114,0.28314895189746,0.24492893804759,6881.2274034879,0.48985787609519,13762.454806976,0.0041756312798389,6881.472332426,2999.9999996395,2999.9999996395,1473.15
199696.11412137,0.28314895190037,0.2449289380525,6881.2274035588,0.489857876105,13762.454807118,0.004175631279901,6881.4723324969,2999.9999996995,2999.9999996995,1473.15
239635.33794564,0.2831489519028,0.24492893805659,6881.2274036179,0.48985787611318,13762.454807236,0.0041756312799528,6881.4723325559,2999.9999997496,2999.9999997496,1473.15
287562.40653477,0.28314895190483,0.24492893806,6881.2274036671,0.48985787611999,13762.454807334,0.0041756312799959,6881.4723326052,2999.9999997914,2999.9999997913,1473.15
345074.88884173,0.28314895190652,0.24492893806284,6881.2274037081,0.48985787612567,13762.454807416,0.0041756312800319,6881.4723326462,2999.9999998261,2999.9999998261,1473.15
414089.86761007,0.28314895190793,0.2449289380652,6881.2274037423,0.4898578761304,13762.454807485,0.0041756312800618,6881.4723326804,2999.9999998551,2999.9999998551,1473.15
496907.84213209,0.2831489519091,0.24492893806717,6881.2274037708,0.48985787613435,13762.454807542,0.0041756312800868,6881.4723327089,2999.9999998793,2999.9999998793,1473.15
596289.4115585,0.28314895191007,0.24492893806882,6881.2274037946,0.48985787613763,13762.454807589,0.0041756312801076,6881.4723327326,2999.9999998994,2999.9999998994,1473.15
715547.2948702,0.28314895191089,0.24492893807019,6881.2274038143,0.48985787614037,13762.454807629,0.004175631280125,6881.4723327524,2999.9999999161,2999.9999999161,1473.15
858656.75484424,0.28314895191157,0.24492893807133,6881.2274038308,0.48985787614265,13762.454807662,0.0041756312801394,6881.4723327689,2999.9999999301,2999.9999999301,1473.15
1030388.1068131,0.28314895191213,0.24492893807228,6881.2274038446,0.48985787614455,13762.454807689,0.0041756312801514,6881.4723327827,2999.9999999418,2999.9999999418,1473.15
1236465.7291757,0.2831489519126,0.24492893807307,6881.2274038561,0.48985787614614,13762.454807712,0.0041756312801615,6881.4723327941,2999.9999999515,2999.9999999515,1473.15
1483758.8760109,0.283148951913,0.24492893807373,6881.2274038656,0.48985787614746,13762.454807731,0.0041756312801698,6881.4723328036,2999.9999999596,2999.9999999596,1473.15
1780510.652213,0.28314895191332,0.24492893807428,6881.2274038735,0.48985787614856,13762.454807747,0.0041756312801768,6881.4723328116,2999.9999999663,2999.9999999663,1473.15
2136612.7836556,0.2831489519136,0.24492893807474,6881.2274038801,0.48985787614948,13762.45480776,0.0041756312801826,6881.4723328182,2999.9999999719,2999.9999999719,1473.15
2563935.3413868,0.28314895191382,0.24492893807512,6881.2274038857,0.48985787615024,13762.454807771,0.0041756312801875,6881.4723328237,2999.9999999766,2999.9999999766,1473.15
3076722.4106641,0.28314895191401,0.24492893807544,6881.2274038903,0.48985787615088,13762.454807781,0.0041756312801915,6881.4723328283,2999.9999999805,2999.9999999805,1473.15
3692066.8937969,0.28314895191417,0.2449289380757,6881.2274038941,0.48985787615141,13762.454807788,0.0041756312801949,6881.4723328322,2999.9999999837,2999.9999999837,1473.15
4430480.2735563,0.2831489519143,0.24492893807593,6881.2274038973,0.48985787615185,13762.454807795,0.0041756312801976,6881.4723328354,2999.9999999865,2999.9999999865,1473.15
