time,atomic_fraction_H_enclosure_2_at_interface,concentration_H_encl_1_inventory,concentration_H_encl_2_inventory,concentration_H_enclosure_1_at_interface,concentration_H_enclosure_2_at_interface,concentration_ratio_H2,mass_conservation_sum_encl1_encl2,pressure_H2_enclosure_1,pressure_H2_enclosure_1_at_interface,temperature
0,0.35,0.38226601100571,8505.875,0.76453202201142,17011.75,0.0058616675639173,8506.257266011,5000,5000,1573.15
1,0.3499084089024,0.3898070936087,8505.8621483354,1.4097978681278,17007.298214701,0.010810335835995,8506.251955429,5098.6365827183,9220.0053597409,1573.15
2.2,0.34984468087928,0.39440177618524,8505.853205808,1.4092666936954,17004.200714138,0.010807246982747,8506.2476075842,5158.7345569595,9216.5315063438,1573.15
3.64,0.34979101256389,0.39821805742802,8505.845674239,1.4088150574956,17001.592165668,0.010804612297719,8506.2438922964,5208.6511220333,9213.5778288865,1573.15
5.368,0.34974120957537,0.40174611547906,8505.8386843109,1.4083960818939,16999.171491411,0.01080216808178,8506.2404304264,5254.7977574844,9210.8377500561,1573.15
7.4416,0.34969188244146,0.40523621803732,8505.8317602185,1.407981220304,16996.773946067,0.010799747780509,8506.2369964366,5300.4479390043,9208.1245766508,1573.15
9.92992,0.34964132378695,0.4088100796653,8505.824662099,1.4075561163533,16994.316542665,0.010797267638451,8506.2334721787,5347.1936805179,9205.3444187344,1573.15
12.915904,0.34958852902469,0.41253898400535,8505.8172485985,1.407112335474,16991.750453245,0.010794678437735,8506.2297875825,5395.9673647155,9202.4421146677,1573.15
16.4990848,0.34953276886957,0.41647506264542,8505.8094168603,1.4066437665022,16989.040230906,0.010791944509498,8506.2258919229,5447.4508673909,9199.3776977546,1573.15
20.79890176,0.34947342297451,0.42066292624498,8505.8010791418,1.4061452217655,16986.155723676,0.010789035567171,8506.2217420681,5502.2276913693,9196.1172408843,1573.15
25.958682112,0.34940991169333,0.42514442841534,8505.7921531868,1.4056118636171,16983.068757854,0.010785923360468,8506.2172976152,5560.8452775702,9192.6291060969,1573.15
32.1504185344,0.34934166427869,0.42996094296997,8505.7825576933,1.4050389379677,16979.751592266,0.010782580120054,8506.2125186363,5623.8447912068,9188.8822018939,1573.15
39.58050224128,0.3492681015809,0.43515458809915,8505.7722097944,1.4044216301494,16976.17607734,0.010778977715634,8506.2073643825,5691.7771338641,9184.8450405941,1573.15
48.496602689536,0.34918862525617,0.44076869472421,8505.7610234232,1.4037549758564,16972.313130576,0.010775087135107,8506.2017921179,5765.2090695244,9180.4851558945,1573.15
59.195923227443,0.34910261036619,0.44684700674611,8505.7489081175,1.4030338009456,16968.132376849,0.010770878131825,8506.1957551243,5844.7127639009,9175.7687091662,1573.15
72.035107872932,0.3490094000579,0.45343016475064,8505.7357680667,1.4022526790872,16963.601889814,0.010766318975714,8506.1891982314,5930.8197916642,9170.6602124915,1573.15
87.442129447518,0.34890830183061,0.46054732803481,8505.7215013187,1.401405903145,16958.688010477,0.010761376284192,8506.1820486468,6023.9115534121,9165.1223414947,1573.15
105.93055533702,0.3487985853722,0.46820141965835,8505.7059991253,1.4004874701442,16953.355242016,0.010756014932043,8506.1742005449,6124.0262824643,9159.1158370298,1573.15
128.11666640443,0.3486794820394,0.47634921743541,8505.6891454105,1.399491080457,16947.566224525,0.010750198043919,8506.1654946279,6230.5986370875,9152.5994998551,1573.15
154.73999968531,0.34855018516504,0.48488137462985,8505.6708162182,1.398410144366,16941.281749947,0.010743887029538,8506.1556975928,6342.1983732502,9145.5302335601,1573.15
186.68799962237,0.34840984694992,0.49360982258623,8505.6508785007,1.3972377605857,16934.460611001,0.010737041454724,8506.1444883233,6456.3655723352,9137.8629040919,1573.15
225.02559954685,0.34825755889774,0.5022690165867,8505.6291863659,1.3959665581229,16927.058650225,0.01072961811382,8506.1314553825,6569.6269368191,9129.549305536,1573.15
271.03071945622,0.34809228664396,0.51053399670018,8505.6055706132,1.3945881594166,16919.025592329,0.010721567888944,8506.1161046099,6677.7320243175,9120.5346490759,1573.15
326.23686334746,0.34791271270557,0.51805469172934,8505.57981492,1.3930918805925,16910.297401054,0.010712828149854,8506.0978696118,6776.1019396727,9110.7490627236,1573.15
392.48423601695,0.34771694229414,0.52450329468167,8505.5516121882,1.3914623023052,16900.781980207,0.010703308547951,8506.0761154829,6860.4490012301,9100.0917047556,1573.15
471.98108322034,0.34750207173609,0.52962842928124,8505.5205006696,1.3896757193545,16890.338196733,0.010692870242932,8506.0501290989,6927.4852332258,9088.4075443853,1573.15
567.37729986441,0.34726370406162,0.53330487881772,8505.4857912566,1.3876961875205,16878.752335915,0.01068130274756,8506.0190961354,6975.5728140025,9075.4615082673,1573.15
681.8527598373,0.34699557462098,0.53556287648695,8505.4465081144,1.3854725345808,16865.719904453,0.010668306366671,8505.9820709909,7005.1071906437,9060.9189327068,1573.15
819.22331180476,0.34668945465314,0.53658155261507,8505.4013653579,1.3829377360756,16850.840943416,0.010653488408952,8505.9379469105,7018.4313693411,9044.3414811929,1573.15
984.06797416571,0.34633540410706,0.5366412763372,8505.3487887432,1.380011242821,16833.632316624,0.010636376604012,8505.8854300196,7019.2125494671,9025.2023662158,1573.15
1181.8815689988,0.34592228968893,0.53604744410857,8505.2869693564,1.3766035499289,16813.55289033,0.010616445581783,8505.8230168005,7011.4452851599,9002.9162304224,1573.15
1419.2578827986,0.34543836347568,0.5350542593968,8505.2139190773,1.3726212967513,16790.031656735,0.010593146423891,8505.7489733367,6998.4545315593,8976.8724999909,1573.15
1704.1094593583,0.34487169737301,0.53381906713152,8505.1274971444,1.3679711962316,16762.488850815,0.010565929341177,8505.6613162115,6982.2983441177,8946.4610823792,1573.15
2045.93135123,0.34421040517473,0.53240128953768,8505.0253956963,1.3625622325797,16730.346743518,0.010534256189063,8505.5577969858,6963.7539594087,8911.0867390151,1573.15
2456.117621476,0.34344277407204,0.53079501739863,8504.9050982341,1.3563071314786,16693.036033771,0.010497608688355,8505.4358932515,6942.7440854885,8870.1787003652,1573.15
2948.3411457712,0.34255753799267,0.52896931929955,8504.7638400999,1.3491249813543,16650.009134134,0.010455503362256,8505.2928094192,6918.8641426409,8823.2078089084,1573.15
3539.0093749255,0.34154448498454,0.52689531847512,8504.5985946324,1.3409464884654,16600.769692674,0.010407521939528,8505.1254899509,6891.7364257537,8769.7208871477,1573.15
4247.8112499105,0.34039545472678,0.52455587655476,8504.4060905909,1.3317221617454,16544.921076995,0.010353359091854,8504.9306464674,6861.1367667072,8709.394266062,1573.15
5098.3734998927,0.33910566055505,0.52194593769747,8504.1828515601,1.3214326800376,16482.230631278,0.010292883319705,8504.7047974978,6826.9990356228,8642.1015862819,1573.15
6119.0481998712,0.33767520716012,0.51907201338328,8503.9252429773,1.3101001718658,16412.703444018,0.010226203771262,8504.4443149907,6789.4084019875,8567.9875672118,1573.15
7343.8578398454,0.33611062461637,0.51595356242588,8503.6295111115,1.2977987831005,16336.656909479,0.010153733684471,8504.1454646739,6748.6193850775,8487.5371190218,1573.15
8813.6294078145,0.33442614828591,0.51262495445188,8503.2917931933,1.2846623242617,16254.782937436,0.010076237616032,8503.8044181477,6705.0815360645,8401.6253556119,1573.15
10577.355289377,0.33264434881196,0.50913612029396,8502.9080686409,1.2708860631313,16168.178574005,0.0099948451163942,8503.4172047612,6659.4479450902,8311.5293182077,1573.15
12693.826347253,0.33079561821214,0.50555071594216,8502.4740136545,1.256719337841,16078.321023201,0.0099110108151036,8502.9795643704,6612.5512259395,8218.8796653322,1573.15
15233.591616703,0.32891603417695,0.50194117134184,8501.9847226938,1.2424461941199,15986.963841171,0.0098264035046865,8502.4866638651,6565.3387548278,8125.5340414071,1573.15
18281.309940044,0.32704334932969,0.49838048982414,8501.4342775361,1.2283532237978,15895.94199417,0.0097427180695374,8501.9326580259,6518.7654077974,8033.3667422203,1573.15
21938.571928053,0.32521135276794,0.4949315378224,8500.8151824914,1.2146874640458,15806.897801286,0.0096614258874023,8501.3101140292,6473.6534713128,7943.9933781326,1573.15
26327.286313664,0.32344359258223,0.49163581070048,8500.117739974,1.2016121835673,15720.975817459,0.0095835094033754,8500.6093757847,6430.5457004538,7858.4817180445,1573.15
31593.743576396,0.3217482009678,0.48850483741727,8499.3294964695,1.1891730148346,15638.57130804,0.0095092553179526,8499.8180013069,6389.5928928138,7777.1301959723,1573.15
37913.492291676,0.32011588321829,0.4855177419253,8498.4349113935,1.1772882946506,15559.232503825,0.0094381905401236,8498.9204291354,6350.5219918447,7699.4047388183,1573.15
45497.190750011,0.31852252495853,0.4826272242821,8497.4153535673,1.1657725377916,15481.78732561,0.0093692164398477,8497.8979807916,6312.7143191772,7624.0922827834,1573.15
54597.628900013,0.31693619194135,0.4797731670696,8496.249402066,1.1543899273236,15404.683609309,0.0093009248889393,8496.7291752331,6275.383545183,7549.6505972798,1573.15
65518.154680015,0.31532615776757,0.47689932867907,8494.9132680557,1.1429199611356,15326.427898293,0.0092319904067753,8495.3901673844,6237.7940354203,7474.6376098717,1573.15
78622.785616018,0.31367031994956,0.47396650742179,8493.3810629917,1.1312092175369,15245.945901148,0.0091614823252601,8493.8550294992,6199.4330358437,7398.049950614,1573.15
94348.342739222,0.31195812103657,0.47095718418692,8491.6247031849,1.1191895986188,15162.724472983,0.0090889778207996,8492.095660369,6160.0713982898,7319.4422626951,1573.15
113219.01128707,0.31018868440718,0.46787148836962,8489.6134423698,1.1068624462614,15076.721005611,0.0090144701249325,8490.0813138581,6119.7108152343,7238.8233219412,1573.15
135863.81354448,0.30836649615992,0.46471898922488,8487.3132215141,1.0942662470278,14988.153545853,0.0089381767137289,8487.7779405033,6078.4764515455,7156.4448284904,1573.15
163037.57625338,0.30649764714989,0.46151179231195,8484.6860698308,1.0814494817385,14897.31813972,0.0088603767869415,8485.1475816231,6036.5266466898,7072.6238444094,1573.15
195646.09150405,0.30458817691549,0.45826156301588,8481.689671671,1.0684589286873,14804.508338978,0.0087813409194652,8482.1479332341,5994.0139827006,6987.6662973273,1573.15
234776.30980486,0.30264410534206,0.45497957548875,8478.2770626361,1.0553398663552,14710.016740151,0.0087013324267363,8478.7320422116,5951.0859243246,6901.8683061743,1573.15
281732.57176583,0.30067195358534,0.45167759368947,8474.3963606378,1.0421395424263,14614.160304016,0.0086206287294997,8474.8480382315,5907.8963429307,6815.5388683687,1573.15
338080.086119,0.29867901106293,0.44836828788773,8469.9904749814,1.0289088074698,14517.293332714,0.0085395317725209,8470.4388432692,5864.6109643401,6729.0105440114,1573.15
405697.1033428,0.29667329014158,0.44506511432356,8464.9967889018,1.0157016309137,14419.805267332,0.0084583655829356,8465.4418540161,5821.4057947846,6642.6362903774,1573.15
486837.52401136,0.29466335972578,0.44178200460781,8459.3468278283,1.0025738651468,14322.112599472,0.0083774691542419,8459.7886098329,5778.463058297,6556.7813792095,1573.15
584206.02881363,0.29265816803435,0.43853305722709,8452.9659165419,0.98958201591392,14224.650257309,0.0082971892404587,8453.4044495991,5735.9671616285,6471.815355166,1573.15
701048.23457636,0.29066686495792,0.43533224850251,8445.7728180276,0.97678208799963,14127.86297128,0.008217873467477,8446.2081502761,5694.1009136176,6388.1044866493,1573.15
841258.88149163,0.28869861415704,0.43219314603106,8437.6793428096,0.9642284401191,14032.196141103,0.0081398633409604,8438.1115359556,5653.0417770337,6306.0042768535,1573.15
1009511.65779,0.28676239695934,0.42912862714412,8428.5899161799,0.95197265979074,13938.086304209,0.0080634872051681,8429.019044807,5612.9581860433,6225.8521054892,1573.15
1211414.9893479,0.28486681702431,0.42615061517183,8418.4010892717,0.94006250934194,13845.951641467,0.0079890534668565,8418.8272398868,5574.0060965748,6147.9603357144,1573.15
1453698.9872175,0.28301991518291,0.42326984575325,8407.0009784652,0.92854099198453,13756.182977465,0.0079168443983048,8407.4242483109,5536.3259296801,6072.6102063169,1573.15
1744439.784661,0.28122900300782,0.42049567307164,8394.2686167357,0.91744557750466,13669.135691195,0.0078471107881542,8394.6891124088,5500.0400371113,6000.0467677661,1573.15
2093328.7415933,0.27950052267807,0.41783592368669,8380.0732004281,0.90680761828194,13585.122904767,0.0077800676647636,8380.4910363518,5465.2507894621,5930.4750630079,1573.15
2511995.4899119,0.27783993923569,0.41529680307389,8364.2732155579,0.89665197609523,13504.410246551,0.0077158912607988,8364.688512361,5432.0393537118,5864.057686794,1573.15
3014395.5878943,0.2762516693424,0.41288285699285,8346.715428994,0.88699686821219,13427.212388388,0.0076547173171843,8347.128311851,5400.4651879276,5800.9137791153,1573.15
3617275.7054731,0.27473904830998,0.41059698664977,8327.2337315751,0.87785392862742,13353.691443106,0.0075966407453645,8327.6443285618,5370.566239587,5741.1194256969,1573.15
4340731.8465678,0.27330433473745,0.40844051358909,8305.6478221122,0.869228468191,13283.957189914,0.0075417165866175,8306.0562626258,5342.3597943553,5684.7093592243,1573.15
5208879.2158813,0.27194874978716,0.40641328762599,8281.7617230107,0.86111990687182,13218.068983405,0.0074899621336806,8282.1681362983,5315.8438878303,5631.679786324,1573.15
6250656.0590576,0.27067254619935,0.40451382914991,8255.3621196265,0.85352234347411,13156.03910802,0.0074413600202976,8255.7666334556,5290.9991668586,5581.9921134798,1573.15
7500788.2708691,0.26947510075943,0.40273949594959,8226.2165161939,0.84642522340543,13097.837272412,0.0073958620438433,8226.6192556899,5267.7910715893,5535.5773142017,1573.15
9000946.9250429,0.2683550231923,0.40108666438936,8194.0712010735,0.83981406381255,13043.395902262,0.0073533934677365,8194.4722877379,5246.1722052418,5492.3406713762,1573.15
10801137.310052,0.26731027437308,0.39955091525599,8158.6490130973,0.83367119735901,12992.615885903,0.0073138575537772,8159.0485640126,5226.0847649626,5452.1666415338,1573.15
12961365.772062,0.26633828723844,0.39812721575083,8119.6468989923,0.82797650054312,12945.372451224,0.0072771400969488,8120.0450262081,5207.4629222644,5414.9236180114,1573.15
15553639.926474,0.26543608471528,0.39681009071093,8076.7332493716,0.82270807889048,12901.520897586,0.0072431137715179,8077.1300594623,5190.2350625807,5380.4684120752,1573.15
18664368.911769,0.26460039012193,0.39559377788676,8029.5449980062,0.81784288833216,12860.901961877,0.0072116421392872,8029.9405917841,5174.3258162815,5348.6503167028,1573.15
22397243.694123,0.26382772623064,0.39447236313028,7977.6844685896,0.81335727618654,12823.34663344,0.0071825831962404,7978.0789409528,5159.6578269208,5319.3146445761,1573.15
26876693.432947,0.26311449710223,0.39343988823281,7920.7159725639,0.80922741270337,12788.680131654,0.0071557922530226,7921.1094124521,5146.1531617433,5292.3055503572,1573.15
32252033.119537,0.26245703416556,0.39249040584009,7858.1622941588,0.8054295108825,12756.724145617,0.0071311234686661,7858.5547845646,5133.7340299689,5267.4674682918,1573.15
38702440.743444,0.26185155020994,0.39161790164459,7789.5018039281,0.80193951536706,12727.294597954,0.0071084279420672,7789.8934218297,5122.321765075,5244.6430775864,1573.15
46442929.892133,0.26129387994126,0.39081591153945,7714.1689787055,0.79873157115428,12700.189034545,0.007087543841933,7714.559794617,5111.8318172109,5223.6632878561,1573.15
55731516.87056,0.26077885961265,0.39007662575712,7631.5661367433,0.7957744402312,12675.156471473,0.0070682730990207,7631.956213369,5102.1620354222,5204.3238041069,1573.15
65731516.87056,0.26034493979703,0.38945477222406,7550.0798850916,0.79328703428774,12654.065798834,0.0070520488483032,7550.4693398638,5094.0282553429,5188.0562975025,1573.15
75731516.87056,0.25999209508432,0.38894979107393,7474.804647319,0.79126711491008,12636.915781573,0.0070388639526793,7475.19359711,5087.4231539791,5174.8461289321,1573.15
85731516.87056,0.25969256835262,0.38852159655371,7404.6839390218,0.7895543403098,12622.357284779,0.007027676969901,7405.0724606184,5081.8224138152,5163.6446713674,1573.15
95731516.87056,0.25942924918506,0.38814552609659,7338.9895011995,0.78805006092009,12609.55865664,0.007017846485237,7339.3776467256,5076.9034510211,5153.8067617285,1573.15
105731516.87056,0.25919167313686,0.38780651246062,7277.2113168402,0.7866940081843,12598.011272817,0.0070089804091721,7277.5991233527,5072.4691876259,5144.9382467629,1573.15
115731516.87056,0.25897343803641,0.38749534028502,7218.9786738099,0.78544932090419,12587.40395576,0.0070008388942903,7219.3661691502,5068.3990876609,5136.7980561347,1573.15
125731516.87056,0.25877059522948,0.387206323212,7164.0083586928,0.7842932537942,12577.544781129,0.0069932739806843,7164.395565016,5064.6187741528,5129.2374368493,1573.15
135731516.87056,0.25858066060668,0.3869358794246,7112.0721837408,0.78321147967202,12568.313008787,0.0069861925347006,7112.4591196202,5061.0813973051,5122.1626898731,1573.15
145731516.87056,0.25840201357317,0.38668166755921,7062.9772001898,0.78219463313283,12559.629869724,0.0069795337443729,7063.3638818573,5057.7563323232,5115.5125659416,1573.15
155731516.87056,0.25823353778438,0.38644207091662,7016.5538669142,0.78123624740838,12551.44110401,0.0069732556756827,7016.9403089851,5054.6224329483,5109.244772724,1573.15
165731516.87056,0.25807441071673,0.38621589564342,6972.6490518267,0.78033154710162,12543.706732887,0.0069673274015745,6973.0352677224,5051.6640837008,5103.3280793696,1573.15
175731516.87056,0.25792398289956,0.38600219760002,6931.1218953864,0.77947675566415,12536.395188833,0.0069617244856281,6931.507897584,5048.8689353323,5097.7377874468,1573.15
185731516.87056,0.25778170976229,0.38580018464804,6891.8413343105,0.77866870454868,12529.480002996,0.006956426433212,6892.2271344952,5046.2266267544,5092.4531748197,1573.15
195731516.87056,0.25764711357559,0.38560916203314,6854.6845733842,0.77790461474211,12522.937955341,0.006951415267485,6855.0701825462,5043.7280706521,5087.456066886,1573.15
205731516.87056,0.25751976223565,0.38542850187369,6819.536093768,0.77718197472107,12516.748043464,0.0069466747348133,6819.9215222699,5041.3650543984,5082.7300384121,1573.15
215731516.87056,0.25739925732622,0.38525762592495,6786.2869646512,0.77649847150902,12510.890902341,0.0069421898568583,6786.6722222771,5039.1300146117,5078.2599626509,1573.15
225731516.87056,0.25728522724045,0.385095995587,6754.8343281837,0.7758519507084,12505.348470022,0.0069379466717879,6755.2194241793,5037.0159064606,5074.0317499534,1573.15
235731516.87056,0.25717732305173,0.38494310585307,6725.0809858529,0.775240392294,12500.103786929,0.0069339320782909,6725.4659289587,5035.0161245087,5070.0321894589,1573.15
245731516.87056,0.25707521588041,0.38479848140828,6696.9350468246,0.77466189500794,12495.140867867,0.0069301337356152,6697.319845306,5033.1244516863,5066.2488470389,1573.15
255731516.87056,0.25697859508134,0.38466167391387,6670.3096165211,0.77411466549677,12490.444613928,0.0069265399944105,6670.694278195,5031.3350237687,5062.6699942544,1573.15
265731516.87056,0.25688716688914,0.38453225995815,6645.1225133798,0.77359701011515,12486.000746647,0.0069231398448205,6645.5070456397,5029.6423025746,5059.2845547521,1573.15
275731516.87056,0.25680065332646,0.38440983939473,6621.2960069744,0.77310732827888,12481.795754933,0.0069199228745303,6621.6804168138,5028.0410542306,5056.0820607939,1573.15
285731516.87056,0.25671879127002,0.38429403391747,6598.7565735207,0.77264410676472,12477.816849679,0.0069168792328454,6599.1408675546,5026.5263305312,5053.0526159778,1573.15
295731516.87056,0.25664133161808,0.38418448579022,6577.4346663213,0.77220591462929,12474.051923297,0.0069139995986725,6577.8188508071,5025.0934523248,5050.186862008,1573.15
305731516.87056,0.25656803852833,0.38408085668641,6557.264499544,0.77179139856742,12470.489512669,0.0069112751512408,6557.6485804007,5023.7379943344,5047.4759483384,1573.15
