time,atomic_fraction_H_enclosure_2_at_interface,concentration_H_encl_1_inventory,concentration_H_encl_2_inventory,concentration_H_enclosure_1_at_interface,concentration_H_enclosure_2_at_interface,concentration_ratio_H2,mass_conservation_sum_encl1_encl2,pressure_H2_enclosure_1,pressure_H2_enclosure_1_at_interface,temperature
0,0.35,0.38226601100571,8505.875,0.76453202201142,17011.75,0.0058616675639173,8506.257266011,5000,5000,1573.15
1,0.34992467802497,0.38843540640301,8505.8644311479,1.2951807337606,17008.088975404,0.0099312203042715,8506.2528665543,5080.6950555331,8470.4152113414,1573.15
2.2,0.34987227034911,0.3922101713723,8505.8570771292,1.2947400206345,17005.541700319,0.0099285845149586,8506.2492873006,5130.0685920314,8467.5329702225,1573.15
3.64,0.34982813553713,0.39534940548027,8505.850883449,1.2943678068452,17003.396527782,0.0099263563330259,8506.2462328544,5171.1294504073,8465.0987112338,1573.15
5.368,0.34978717952301,0.39825308404388,8505.8451352077,1.2940224938253,17001.405860716,0.0099242891260443,8506.2433882917,5209.1092665564,8462.8403818902,1573.15
7.4416,0.34974661491814,0.40112569662141,8505.8394411191,1.2936805559853,16999.434218096,0.0099222420458071,8506.2405668157,5246.6827428115,8460.6041260493,1573.15
9.92992,0.34970503765253,0.40406700043648,8505.8336039305,1.2933301601799,16997.413355101,0.0099201442501564,8506.2376709309,5285.1546933693,8458.3125555507,1573.15
12.915904,0.34966162161207,0.40713556622411,8505.8275074007,1.2929643525299,16995.303118455,0.0099179540984647,8506.2346429669,5325.2912174034,8455.920192383,1573.15
16.4990848,0.34961576708721,0.41037428369135,8505.821066948,1.2925780930769,16993.074359274,0.0099156414028654,8506.2314412317,5367.6533078588,8453.3940754781,1573.15
20.79890176,0.34956696396182,0.41381986806744,8505.8142104211,1.2921671020413,16990.702283364,0.0099131805215133,8506.2280302892,5412.7211961471,8450.7062152984,1573.15
25.958682112,0.34951473559895,0.41750676331072,8505.8068701814,1.2917273871036,16988.163723787,0.0099105475281828,8506.2243769447,5460.9454056913,8447.83050228,1573.15
32.1504185344,0.34945861268946,0.4214690124399,8505.7989793766,1.2912550236452,16985.435869771,0.0099077188959406,8506.220448389,5512.7712156654,8444.7412696199,1573.15
39.58050224128,0.34939811902473,0.42574126490959,8505.7904698687,1.2907460357578,16982.495575197,0.0099046707838421,8506.2162111336,5568.651837362,8441.4125150829,1573.15
48.496602689536,0.34933276261778,0.43035916320069,8505.7812708893,1.2901963225632,16979.318927037,0.0099013785946559,8506.2116300525,5629.0534707553,8437.8174191368,1573.15
59.195923227443,0.3492620296021,0.4353586871968,8505.771308054,1.2896016081773,16975.88094881,0.0098978166739007,8506.2066667412,5694.4467290122,8433.9280177205,1573.15
72.035107872932,0.34918537982477,0.44077326548553,8505.7605025744,1.2889574062011,16972.155386383,0.0098939580955922,8506.2012758399,5765.2688546112,8429.7149700149,1573.15
87.442129447518,0.3491022437385,0.44662688891251,8505.7487706006,1.28825899542,16968.11455691,0.009889774514821,8506.1953974896,5841.8336453386,8425.1473995209,1573.15
105.93055533702,0.34901202061076,0.45292197804227,8505.7360226811,1.2875014068759,16963.729261786,0.0098852360881259,8506.1889446591,5924.1727619292,8420.1928095084,1573.15
128.11666640443,0.34891407815336,0.45962300744796,8505.7221633335,1.286679423179,16958.968768644,0.0098803114668593,8506.1817863409,6011.8215354634,8414.8170785175,1573.15
154.73999968531,0.34880775290952,0.46664006703336,8505.7070906095,1.2857875844916,16953.800830167,0.0098749678301807,8506.1737306765,6103.6039511553,8408.9844994905,1573.15
186.68799962237,0.34869234786137,0.4738184922298,8505.6906951213,1.2848201715459,16948.191567802,0.0098691707800654,8506.1645136136,6197.4970123975,8402.6576687114,1573.15
225.02559954685,0.34856711645581,0.48093988189847,8505.6728569717,1.2837710753699,16942.104695335,0.0098628835568234,8506.1537968536,6290.6440548188,8395.7966338179,1573.15
271.03071945622,0.34843120902923,0.48773695103874,8505.6534371519,1.2826333533617,16935.498914866,0.0098560643734952,8506.1411741029,6379.5490181765,8388.3559905521,1573.15
326.23686334746,0.34828354342762,0.49392174720059,8505.6322579495,1.2813981542473,16928.321628299,0.0098486599639056,8506.1261796967,6460.4455141215,8380.2778520386,1573.15
392.48423601695,0.3481225629952,0.49922461907006,8505.6090670378,1.2800527088247,16920.497174382,0.0098405935223443,8506.1082916569,6529.8065312771,8371.4787083544,1573.15
471.98108322034,0.34794588162807,0.50343876898858,8505.5834849452,1.2785773921501,16911.909576532,0.0098317470602553,8506.0869237142,6584.9271775965,8361.8302133786,1573.15
567.37729986441,0.34774988548535,0.50646115278869,8505.5549452717,1.2769424487854,16902.383184015,0.0098219417164159,8506.0614064245,6624.4596459968,8351.1377680811,1573.15
681.8527598373,0.34752942531632,0.50831656629085,8505.5226458984,1.2751055085045,16891.6677175,0.0098109227712968,8506.0309624647,6648.728263252,8339.1242733677,1573.15
819.22331180476,0.34727773751602,0.50915224865446,8505.4855298602,1.2730110487555,16879.434431966,0.0097983562952855,8505.9946821089,6659.6589023821,8325.4266146128,1573.15
984.06797416571,0.3469866525618,0.50919867526385,8505.4423032618,1.2705922897806,16865.286247766,0.0097838403473303,8505.9515019371,6660.2661576449,8309.6080556427,1573.15
1181.8815689988,0.34664702175961,0.50870686615047,8505.3914795387,1.2677749378841,16848.778492626,0.0097669272256596,8505.9001864048,6653.8333451634,8291.1827195194,1573.15
1419.2578827986,0.34624919404625,0.50788568920464,8505.3314252168,1.264481366054,16829.442076618,0.0097471483151439,8505.8393109061,6643.0924354017,8269.6429295875,1573.15
1704.1094593583,0.3457833745855,0.50686429683365,8505.2603819638,1.2606338276294,16806.800921728,0.0097240331072553,8505.7672462606,6629.7327285276,8244.4802266934,1573.15
2045.93135123,0.34523980919373,0.50569124795804,8505.1764549878,1.2561562403449,16780.380925861,0.0096971196100793,8505.6821462358,6614.3893702138,8215.1970367448,1573.15
2456.117621476,0.34460889501361,0.50436131121098,8505.0775792916,1.2509753734391,16749.715342137,0.0096659611431949,8505.5819406028,6596.9939347216,8181.3144343379,1573.15
2948.3411457712,0.34388140876767,0.50284861790959,8504.9614877568,1.2450229989038,16714.355873153,0.009630138911882,8505.4643363747,6577.2080623469,8142.3862118177,1573.15
3539.0093749255,0.34304901083799,0.50112893939806,8504.8257005678,1.2382402488628,16673.89717178,0.0095892878885948,8505.3268295072,6554.7148447705,8098.0273763099,1573.15
4247.8112499105,0.34210507132124,0.49918767484426,8504.6675406182,1.2305844464135,16628.016991569,0.0095431377317354,8505.1667282931,6529.3233046138,8047.9588230715,1573.15
5098.3734998927,0.34104576383963,0.49702018030786,8504.4841672912,1.2220378160838,16576.529351425,0.0094915653433458,8504.9811874715,6500.9726996162,7992.0643014322,1573.15
6119.0481998712,0.33987132037183,0.49463141716873,8504.2726167874,1.2126170419061,16519.445526673,0.0094346530565593,8504.7672482046,6469.727924115,7930.4529241027,1573.15
7343.8578398454,0.33858729801584,0.49203718317934,8504.0298360209,1.2023823307313,16457.03562006,0.0093727445569244,8504.5218732041,6435.7956110829,7863.5184407836,1573.15
8813.6294078145,0.33720563261154,0.48926583637706,8503.7526927576,1.191444123764,16389.879773084,0.0093064874437777,8504.241958594,6399.5466807244,7791.9831312586,1573.15
10577.355289377,0.33574515011198,0.48635892864932,8503.4379369358,1.1799649517813,16318.893021193,0.0092368472139957,8503.9242958645,6361.5246274414,7716.9099384285,1573.15
12693.826347253,0.33423112566332,0.48336974706011,8503.0820817238,1.1681535555394,16245.303862866,0.0091650748395923,8503.5654514708,6322.4264405356,7639.6640160741,1573.15
15233.591616703,0.33269349529635,0.48035920209791,8502.6811739827,1.1562488013018,16170.567338879,0.0090926121595081,8503.1615331848,6283.0488229143,7561.8075372421,1573.15
18281.309940044,0.33116351451533,0.47738891885306,8502.2304383419,1.1444925844297,16096.202623018,0.0090209290661073,8502.7078272607,6244.1978244036,7484.9224851211,1573.15
21938.571928053,0.32966907730998,0.47451214117891,8501.7238109955,1.1330940804509,16023.565502652,0.0089513057310434,8502.1983231367,6206.5698691143,7410.3768568765,1573.15
26327.286313664,0.32822952692267,0.47176414158278,8501.1534260221,1.1221920132902,15953.596156076,0.0088845999273079,8501.6251901637,6170.6263178044,7339.0778998233,1573.15
31593.743576396,0.3268514119275,0.46915485587322,8500.5091635677,1.1118256482158,15886.612876736,0.0088210651963003,8500.9783184236,6136.4971298248,7271.2824067897,1573.15
37913.492291676,0.32552689515783,0.46666677329274,8499.7783872799,1.1019264471995,15822.234739146,0.0087602942695339,8500.2450540532,6103.9532662736,7206.5421426063,1573.15
45497.190750011,0.32423600064682,0.46426002591549,8498.9459572013,1.0923380486076,15759.490811439,0.0087013366321141,8499.4102172272,6072.4732587925,7143.8345102524,1573.15
54597.628900013,0.32295247363326,0.461883980945,8497.994496308,1.0828618382509,15697.104980945,0.0086429752102628,8498.456380289,6041.3948356254,7081.8605831709,1573.15
65518.154680015,0.32165125665308,0.45949142852444,8496.9047552908,1.0733127371165,15633.859329623,0.0085840686707878,8497.3642467193,6010.1004967138,7019.4099541622,1573.15
78622.785616018,0.32031455721287,0.45704970742291,8495.6558460913,1.0635629442392,15568.889053332,0.0085238222706244,8496.1128957987,5978.1630365259,6955.6468115032,1573.15
94348.342739222,0.31893415365354,0.45454454415132,8494.2251717468,1.0535570172703,15501.79453833,0.008461883773553,8494.679716291,5945.3957592967,6890.2085650935,1573.15
113219.01128707,0.31750975956038,0.45197653522258,8492.5880500224,1.0432980200242,15432.561863432,0.0083982610471197,8493.0400265577,5911.8064673533,6823.115252121,1573.15
135863.81354448,0.31604541948301,0.44935415045074,8490.7171916085,1.0328199958658,15361.387613972,0.0083331541097536,8491.1665457589,5877.5059449901,6754.5895144359,1573.15
163037.57625338,0.31454642393903,0.4466879109693,8488.5822272292,1.0221650719936,15288.528935556,0.0082668143941339,8489.0289151402,5842.6318075481,6684.9068617452,1573.15
195646.09150405,0.31301797738297,0.44398792126291,8486.1493759082,1.0113737617411,15214.238790699,0.0081994848600282,8486.5933638294,5807.3162206446,6614.3322491598,1573.15
234776.30980486,0.31146524133693,0.44126394396009,8483.3812209372,1.0004852671159,15138.768055182,0.0081314019612667,8483.8224848811,5771.6868784536,6543.1220557887,1573.15
281732.57176583,0.30989375733745,0.43852614618835,8480.2365142708,0.98954041663267,15062.386075387,0.0080628141551828,8480.675040417,5735.8767659545,6471.5432980117,1573.15
338080.086119,0.30830965029058,0.43578543485229,8476.6699624597,0.97858297917209,14985.390552374,0.0079939904409902,8477.1057478946,5700.0285443346,6399.8822220521,1573.15
405697.1033428,0.30671957600244,0.4330533364186,8472.6319904843,0.96765918108815,14908.104991599,0.0079252176889442,8473.0650438207,5664.2929785894,6328.4411458811,1573.15
486837.52401136,0.3051305730197,0.43034171961477,8468.068493045,0.95681660251791,14830.871501622,0.0078567940017247,8468.4988347646,5628.8253104504,6257.5312411415,1573.15
584206.02881363,0.30354990820331,0.42766252238282,8462.9205749666,0.94610308880971,14754.043288222,0.0077890220571488,8463.348237489,5593.7816869682,6187.4654139443,1573.15
701048.23457636,0.30198492415877,0.42502749693285,8457.1242738971,0.93556573222041,14677.977238737,0.00772220277057,8457.5493013941,5559.3158258386,6118.551645221,1573.15
841258.88149163,0.30044288123432,0.42244795946159,8450.6102554017,0.92524987168471,14603.026242394,0.0076566289423988,8451.0327033611,5525.575741748,6051.0864492664,1573.15
1009511.65779,0.29893079665805,0.41993454794338,8443.3034696911,0.9151981248106,14529.531371564,0.0075925789772973,8443.7234042391,5492.7005783037,5985.3485430394,1573.15
1211414.9893479,0.29745528868641,0.41749699969029,8435.1227583609,0.90544949888049,14457.814306603,0.0075303109766732,8435.5402553606,5460.8176985432,5921.5930321553,1573.15
1453698.9872175,0.29602243362756,0.41514395947707,8425.9803987442,0.89603862402249,14388.170386468,0.0074700574935641,8426.3955427037,5430.0401752286,5860.0463958664,1573.15
1744439.784661,0.2946376425424,0.41288282659343,8415.7815732389,0.88699514202517,14320.862615773,0.0074120211864573,8416.1944560655,5400.4647903063,5800.9024899413,1573.15
2093328.7415933,0.29330556322996,0.41071964684408,8404.4237513431,0.87834327490103,14256.116900792,0.0073563715556455,8404.83447099,5372.1706222784,5744.3197250926,1573.15
2511995.4899119,0.29203001154359,0.40865905288442,8391.7959730528,0.87010158676434,14194.118711076,0.0073032428823228,8392.2046321057,5345.2182657998,5690.4195096706,1573.15
3014395.5878943,0.29081393417195,0.40670425336616,8377.7780235971,0.86228294092772,14135.011270428,0.0072527334167119,8378.1847278505,5319.6496897037,5639.2859690764,1573.15
3617275.7054731,0.28965940294886,0.40485706845025,8362.2394910152,0.85489464244978,14078.89528033,0.0072049057842353,8362.6443480836,5295.4887015079,5590.9668780166,1573.15
4340731.8465678,0.28856763874672,0.40311800661319,8345.0386995731,0.84793874583754,14025.830081284,0.0071597885059802,8345.4418175798,5272.7419520326,5545.4756728612,1573.15
5208879.2158813,0.28753906126731,0.40148637557429,8326.021513246,0.84141249921154,13975.836072898,0.0071173784686675,8326.4229996216,5251.4003863175,5502.7943564604,1573.15
6250656.0590576,0.28657335973706,0.39996041878552,8305.0200042354,0.83530889069651,13928.89815002,0.0070776441356607,8305.4199646542,5231.4410288958,5462.8770715116,1573.15
7500788.2708691,0.28566957874488,0.39853746833902,8281.8509816144,0.82961726045358,13884.969874895,0.0070405292675318,8282.2495190827,5212.8289838077,5425.6541032181,1573.15
9000946.9250429,0.28482621325598,0.39721410534271,8256.3143746275,0.82432394255274,13843.978095307,0.0070059569187812,8256.7115887328,5195.5195322973,5391.0360771025,1573.15
10801137.310052,0.28404130714479,0.39598631968116,8228.1914639428,0.81941290435135,13805.827733773,0.0069738334942307,8228.5874502625,5179.4602224685,5358.9181405087,1573.15
12961365.772062,0.28331255030711,0.39484966243527,8197.2429523508,0.81486635647151,13770.406507677,0.0069440526799967,8197.6378020132,5164.5928629183,5329.1839518224,1573.15
15553639.926474,0.28263737038714,0.3937993858602,8163.2068641722,0.81066531297392,13737.589387667,0.0069164991040986,8163.600663558,5150.8553536338,5301.7093439797,1573.15
18664368.911769,0.28201301619575,0.39283056743564,8125.7962603206,0.80679008778572,13707.242652194,0.0068910516231348,8126.189090888,5138.1833085569,5276.3655710792,1573.15
22397243.694123,0.28143663053135,0.39193821541038,8084.6967556433,0.80322071707193,13679.227426976,0.0068675861554705,8085.0886938588,5126.5114360969,5253.0220706696,1573.15
26876693.432947,0.28090530852588,0.39111735069762,8039.5638411691,0.79993728697821,13653.402520901,0.0068459779146297,8039.9549585198,5115.7746103116,5231.5486071705,1573.15
32252033.119537,0.28041612798283,0.39036304502004,7990.0201221169,0.79692008634324,13629.625900606,0.0068261025029029,7990.410485162,5105.9083698421,5211.8162706031,1573.15
38702440.743444,0.27996610956292,0.38967035130694,7935.6530737559,0.7941493283902,13607.752755306,0.0068078341652168,7936.0427441072,5096.8480075138,5193.6956564675,1573.15
46442929.892133,0.27955201608005,0.38903398830067,7876.0155625487,0.79160388923087,13587.625741571,0.0067910375401613,7876.404596537,5088.5244450213,5177.0486156239,1573.15
55731516.87056,0.27916988218741,0.38844761492908,7810.635421861,0.78925840542294,13569.052123719,0.006775548531229,7811.023869476,5080.854741795,5161.7092724676,1573.15
65731516.87056,0.27884808988468,0.38795448366277,7746.1507175282,0.78728588684234,13553.411408845,0.0067625136621508,7746.5386720118,5074.4046356894,5148.8091026656,1573.15
75731516.87056,0.27858648412237,0.38755402196211,7686.5913520231,0.78568404417001,13540.696060768,0.0067519223419904,7686.9789060451,5069.1666379452,5138.3331341894,1573.15
85731516.87056,0.27836441360933,0.38721438671841,7631.1199157392,0.78432550594474,13529.902323481,0.0067429355348283,7631.5071301259,5064.724243985,5129.4483642506,1573.15
95731516.87056,0.27816917174027,0.38691601536702,7579.1595837093,0.78313202246473,13520.412592436,0.006735037378139,7579.5464997247,5060.8215774805,5121.6430438347,1573.15
105731516.87056,0.27799300316035,0.38664697814149,7530.3065455224,0.78205587499067,13511.849918609,0.0067279131497327,7530.6931925005,5057.302598317,5114.6050948471,1573.15
115731516.87056,0.27783117294551,0.38639999315766,7484.267244619,0.78106793617982,13503.984161016,0.0067213707221163,7484.6536446122,5054.0720602006,5108.1440259683,1573.15
125731516.87056,0.27768076601454,0.38617057551045,7440.8172567194,0.78015026652686,13496.673632137,0.0067152917886968,7441.203427295,5051.0713010355,5102.1425137586,1573.15
135731516.87056,0.27753995049426,0.38595590387551,7399.7755666008,0.77929158080166,13489.829293774,0.0067096019668679,7400.1615225047,5048.26341819,5096.5267533949,1573.15
145731516.87056,0.27740753120348,0.38575413451349,7360.9889321388,0.7784845040857,13483.393054145,0.0067042526888495,7361.3746862733,5045.6242957438,5091.2485132904,1573.15
155731516.87056,0.27728268360086,0.38556399298029,7324.3225600142,0.77772393862488,13477.32483642,0.0066992104172941,7324.7081240072,5043.1372640992,5086.274454396,1573.15
165731516.87056,0.27716479852162,0.38538453603813,7289.654605376,0.777006111481,13471.595032143,0.0066944503539929,7290.039989912,5040.7899858035,5081.5799018906,1573.15
175731516.87056,0.27705339342384,0.38521501560779,7256.8729291211,0.77632803034494,13466.180187366,0.0066899528441959,7257.2581441367,5038.5726760578,5077.1452862268,1573.15
185731516.87056,0.27694806250953,0.38505480230197,7225.8731602087,0.7756871776723,13461.060578276,0.0066857013557295,7226.258215011,5036.4771025408,5072.954142794,1573.15
195731516.87056,0.27684844898367,0.38490334286272,7196.5575004944,0.77508134043457,13456.218862851,0.0066816813545978,7196.9424038373,5034.4960286957,5068.9919985,1573.15
205731516.87056,0.27675422964667,0.38476013647829,7168.8339481584,0.77450851538727,13451.639331976,0.0066778796799136,7169.2187082949,5032.6229039566,5065.2457522289,1573.15
215731516.87056,0.27666510624724,0.38462472144766,7142.6157569793,0.7739668557282,13447.307489147,0.0066742841925278,7143.0003817008,5030.8516893216,5061.7033259899,1573.15
225731516.87056,0.2765808005043,0.384496667463,7117.8210299469,0.77345464022771,13443.209808511,0.0066708835722275,7118.2055266143,5029.1767564088,5058.3534630297,1573.15
235731516.87056,0.27650105111232,0.38437557093291,7094.372391407,0.77297025452167,13439.333589315,0.006667667195301,7094.7567669779,5027.5928262841,5055.1856054901,1573.15
245731516.87056,0.27642561182133,0.38426105195695,7072.1967072098,0.77251217900964,13435.666862576,0.0066646250556946,7072.5809682618,5026.0949298892,5052.1898152626,1573.15
255731516.87056,0.27635425010424,0.3841527522067,7051.2248361352,0.7720789803792,13432.198326317,0.0066617477100489,7051.6089888874,5024.678380325,5049.3567185579,1573.15
265731516.87056,0.27628674615149,0.38405033331511,7031.3914033491,0.77166930516332,13428.917296693,0.0066590262360795,7031.7754536824,5023.3387517858,5046.6774637714,1573.15
275731516.87056,0.27622289205346,0.38395347556103,7012.6345906803,0.77128187447848,13425.813668258,0.0066564521986636,7013.0185441558,5022.0718623516,5044.1436870708,1573.15
285731516.87056,0.27616249109669,0.38386187673452,6994.8959406726,0.77091547948593,13422.877879755,0.0066540176206176,6995.2798025493,5020.8737591477,5041.7474827132,1573.15
295731516.87056,0.2761053571336,0.38377525112128,6978.1201725411,0.77056897732947,13420.100883479,0.0066517149565364,6978.5039477923,5019.7407050604,5039.4813764777,1573.15
