time,mobile_average_hat,temperature,trapped_1_average,trapped_2_average,trapped_3_average,trapped_4_average,trapped_5_average,trapped_intrinsic_average
0,0,370,0,0,0,0,0,0
2.456030684345e-07,66.859480958151,370,0.16451702520792,0.10213021376909,0.00069715342720862,0.0001054412639931,2.7964678525844e-05,0.085862429822357
5.0348629029072e-07,124.18613988848,370,0.48537243420409,0.30131343792934,0.0020568026655794,0.00031108198622993,8.2503826402068e-05,0.2533191546255
7.7426367323976e-07,177.23448446976,370,0.96618179281755,0.59979417277491,0.0040942689507652,0.00061923943345572,0.00016423201914811,0.50425747156346
1.0585799253362e-06,228.37501500473,370,1.6167034781606,1.0036303028304,0.0068509041491937,0.0010361678861408,0.00027480799013019,0.84377064684988
1.3571119900376e-06,278.86708702884,370,2.4507667772643,1.5214068851113,0.010385310918199,0.0015707307278984,0.0004165824478282,1.2790765859776
1.6705706579739e-06,329.45008519831,370,3.4853847000268,2.1636853939469,0.014769583183306,0.0022338318348867,0.00059244727137844,1.8190548094923
1.9997022593071e-06,380.60835875349,370,4.7404241483788,2.9427989659198,0.020087908454942,0.0030382041826109,0.00080577944577894,2.4740743155251
2.345290440707e-06,432.69212050766,370,6.2385447661352,3.8728144385802,0.026436308700028,0.0039983706539372,0.0010604306675596,3.2559616683944
2.7081580311768e-06,485.97275615248,370,8.0052679650576,4.9695752010057,0.033922932845178,0.0051306882788632,0.0013607390778635,4.1780370271738
3.0891690011702e-06,540.66880320229,370,10.069111385173,6.2507846651685,0.042668626562544,0.0064534344120175,0.0017115521180731,5.2551843250541
3.4892305196632e-06,596.95913735977,370,12.461760039282,7.7361125104124,0.052807657507702,0.0079869164215705,0.0021182556210311,6.5039405946464
3.9092951140809e-06,654.99067056496,370,15.218262434123,9.4473164331418,0.064488546398048,0.0097535973860355,0.0025868071478056,7.9425983289672
4.3503629382194e-06,714.88364211144,370,18.377247641238,11.408376901833,0.077874986867107,0.011778235218022,0.0031237728854933,9.5913187763695
4.8134841535649e-06,776.73572571858,370,21.981162479101,13.645644396884,0.09314685054189,0.014088034677586,0.0037363679635463,11.472255731813
5.2997614296776e-06,840.62539994354,370,26.076529078476,16.187999304125,0.11050127849571,0.016712812449468,0.0044325002348482,13.609689966385
5.810352569596e-06,906.61473118676,370,30.714223296507,19.067024750977,0.13015386104913,0.019685175582584,0.0052208176006672,16.030174538015
6.3464732665103e-06,974.75162059745,370,35.949774263523,22.317192561551,0.15233990712232,0.023040713473767,0.0061107589277587,18.762691131577
6.9093999982703e-06,1045.0715460446,370,41.84368503442,25.976062313212,0.17731580301978,0.026818203377722,0.0071126085528318,21.838817413706
7.5004730666183e-06,1117.5988360891,370,48.461773979185,30.084493267762,0.20536045909866,0.031059829208995,0.0082375543122665,25.29290521161
8.1210997883837e-06,1192.3475237152,370,55.875536225449,34.686868750682,0.23677684140914,0.035811413195565,0.0094977489802827,29.162269157257
8.7727578462374e-06,1269.3218358854,370,64.162524170616,39.831332368535,0.27189358414354,0.041122659754392,0.010906374948564,33.487385284221
9.4569988069838e-06,1348.5163787745,370,73.406745808643,45.570035285505,0.31106667757647,0.047047410784629,0.012477711934026,38.312098922214
1.0175451815767e-05,1429.9160780611,370,83.699079357564,51.959393619232,0.35468122508047,0.053643911408205,0.014227207457391,43.683841099197
1.092982747499e-05,1513.4959299908,370,95.137702416681,59.060354856499,0.40315326171239,0.060975085022675,0.016171549791519,49.653852526729
1.1721921917174e-05,1599.2206133315,370,107.82853361676,66.938672024424,0.4569316257397,0.069108816361018,0.018328743033316,56.277414105589
1.2553621081468e-05,1687.0440059532,370,121.88568444421,75.665184177549,0.51649987327995,0.078118241072084,0.020718183905006,63.614082741357
1.3426905203975e-05,1776.9086434848,370,137.43191861674,85.316101572777,0.58237822494003,0.088082040140867,0.023360739839017,71.727931101187
1.4343853532609e-05,1868.7451519119,370,154.59911606222,95.973293701945,0.65512553196201,0.099084737259067,0.02627882784532,80.68778977308
1.5306649277674e-05,1962.4716814297,370,173.52873820799,107.72457813791,0.73534124792211,0.11121699703553,0.029496493601517,90.567490109062
1.6317584809992e-05,2057.9933654347,370,194.37229093097,120.66400792845,0.82366739051699,0.12457592170743,0.03303949014531,101.44610584745
1.7379067118926e-05,2155.2018261889,370,217.29178115965,134.89215504939,0.92079047644957,0.13926534378292,0.036935355487919,113.40819142192
1.8493623543307e-05,2253.9747472387,370,242.46016277083,150.51638721197,1.0274434109504,0.15539611182255,0.041213488407806,126.54401468322
1.9663907788907e-05,2354.1755319141,370,270.06176710155,167.65113511958,1.1444073121048,0.17308636636045,0.045905221629298,140.9497815913
2.0892706246786e-05,2455.6530669392,370,300.29271311904,186.41814709636,1.2725132489795,0.19246180278794,0.051043891543461,156.72785029048
2.218294462756e-05,2558.2416101354,370,333.361292078,206.94672787786,1.4126438716368,0.21365591788579,0.056664903592312,173.98693186905
2.3537694927373e-05,2661.7608211923,370,369.48832136759,229.37395827513,1.5657349105886,0.23681023660977,0.062805792415908,192.84227503844
2.4960182742176e-05,2766.0159543534,370,408.90746223477,253.8448924135,1.7327765231733,0.2620745157239,0.069506275859088,213.41583195858
2.6453794947719e-05,2870.7982314592,370,451.86549618973,280.51272932187,1.9148144648444,0.28960692095263,0.076808301955011,235.83640249873
2.802208776354e-05,2975.8854129878,370,498.62255518133,309.53895582287,2.1129510645573,0.31957417450351,0.084756088050478,260.23975436991
2.9668795220151e-05,3081.0425834182,370,549.45230110033,341.09345796634,2.3283459854275,0.35215167011331,0.093396151317975,286.76871681052
3.1397838049593e-05,3186.0231653197,370,604.64205085205,375.35459867299,2.5622167547357,0.38752355320887,0.10277733001559,315.57324586349
3.3213333020507e-05,3290.5701739631,370,664.49284416124,412.50925982681,2.8158390512562,0.4258827643642,0.11295079501249,346.81045976426
3.5119602739967e-05,3394.4177208862,370,729.31945245011,452.75284778654,3.0905467428785,0.46743104499054,0.12397005129809,380.64464357367
3.71211859454e-05,3497.2927706843,370,799.45032858042,496.28926218612,3.3877316736354,0.5123789051254,0.1358909294391,417.2472229466
3.9222848311105e-05,3598.91715031,370,875.22749897939,543.33082896779,3.7088432065789,0.56094555429456,0.14877156724312,456.79670782954
4.1429593795094e-05,3699.0098043628,370,957.00640167528,594.09819983649,4.0553875374432,0.61335879770681,0.16267238222782,499.47860792729
4.3746676553284e-05,3797.2892832665,370,1045.1556760379,648.82022173331,4.4289268036546,0.66985490149574,0.17765603588094,545.4853229635
4.6179613449382e-05,3893.4764439583,370,1140.0569125248,707.73378148101,4.8310780238629,0.7306784323287,0.19378739112211,595.01601206741
4.8734197190286e-05,3987.2973348652,370,1242.1043734336,771.08363243015,5.2635119146058,0.79608207843276,0.21113346483608,648.27644802763
5.1416510118235e-05,4078.4862287193,370,1351.7046984896,839.12221169179,5.7279516427176,0.8663264609022,0.22976337782852,705.47886363185
5.4232938692581e-05,4166.7887583823,370,1469.2766119876,912.10945833432,6.2261715843178,0.94167994600121,0.24974830504576,766.84179881668
5.7190188695644e-05,4251.9651026139,370,1595.2506510435,990.31264468557,6.7599961732588,1.0224184709969,0.27116142938296,832.58995883582
6.0295301198861e-05,4333.7931609701,370,1730.0689371992,1074.0062345477,7.3312989332829,1.1088253977776,0.29407790286136,902.95409505431
6.3555669327239e-05,4412.0716501444,370,1874.1850160147,1163.4717836178,7.9420017982827,1.2011914100449,0.3185748193621,978.17092122698
6.6979055862035e-05,4486.6230484965,370,2028.0637912463,1258.9978986273,8.5940748333774,1.2998144711285,0.34473120343785,1058.4830791429
7.0573611723571e-05,4557.2963116938,370,2192.1815815922,1360.8802725681,9.2895364753758,1.4049998603543,0.37262801995844,1144.1391682398
7.4347895378185e-05,4623.9692807601,370,2367.0263286401,1469.4218137842,10.03045441397,1.5170603063214,0.40234820945787,1235.3938541335
7.8310893215528e-05,4686.550704802,370,2553.097984441,1584.9328865737,10.818947234112,1.6363162353041,0.43397675401439,1332.508070898
8.2472040944739e-05,4744.9818046136,370,2750.9091059398,1707.7316802034,11.657186934955,1.76309615223,0.467600778292,1435.7493313073
8.6841246060411e-05,4799.2373105112,370,2960.9856812247,1838.1447218355,12.547402431154,1.8977371702357,0.50330968998683,1545.392158068
9.1428911431866e-05,4849.325918246,370,3183.8682091814,1976.5075467632,13.491884127979,2.0405857026316,0.54119536334715,1661.7186473081
9.6245960071893e-05,4895.2901206572,370,3420.1130496501,2123.1655365735,14.49298964271,2.1919983282374,0.5813523686738,1785.0191732468
0.00010130386114392,4937.2053896457,370,3670.2940556754,2278.4749324274,15.553150721423,2.3523428375133,0.62387824977077,1915.593240093
0.00010661465726955,4975.178702628,370,3935.004493036,2442.8040266822,16.674881373141,2.5219994628139,0.66887385022773,2053.7504838805
0.00011219099320147,5009.3464292336,370,4214.8592451752,2616.5345316856,17.860787213399,2.7013622915591,0.7164436882152,2199.8118232595
0.00011804614592997,5039.8716167764,370,4510.4972942064,2800.0631199551,19.113575977691,2.8908408563454,0.76669637820699,2354.1107543757
0.00012419405629491,5066.9407359133,370,4822.5844611864,2993.8031253067,20.436069133593,3.0908618912256,0.81974509677316,2516.994781066
0.00013064936217809,5090.7599697231,370,5151.8163817355,3198.1863900853,21.831214490177,3.3018712388254,0.87570808837732,2688.8269678864
0.00013742743335543,5111.5511489416,370,5498.9216867555,3413.6652397162,23.302099676548,3.5243358889107,0.93470920603659,2869.9876001833
0.00014454440809163,5129.5474520121,370,5864.6653528723,3640.714562621,24.851966339604,3.7587461257328,0.9968784808314,3060.8759327464
0.00015201723156465,5144.988999825,370,6249.8521836958,3879.8339713419,26.484224896138,4.0056177592175,1.0623527136517,3261.9120067379
0.00015986369621131,5158.1184805593,370,6655.3303813626,4131.5500197134,28.202469667524,4.2654944140164,1.1312760822894,3473.5385137405
0.00016810248409031,5169.1769392734,370,7081.9951683222,4396.4184512246,30.01049422732,4.5389498507611,1.2038007570715,3696.2226860281
0.00017675321136326,5178.3998595436,370,7530.7924220383,4675.0264553991,31.912306803585,4.8265902955944,1.2800875186881,3930.458193576
0.00018583647499986,5186.0136506979,370,8002.7222901408,4967.9949120383,33.912145598371,5.1290567571723,1.3603063726979,4176.7670308678
0.00019537390181829,5192.2326346649,370,8498.8427603754,5275.9806074041,36.014493915655,5.4470273146947,1.4446371563499,4435.7013801075
0.00020538819997764,5197.2566022509,370,9020.2731680882,5599.6784116243,38.224095024576,5.7812193659022,1.5332701347873,4707.8454418307
0.00021590321304495,5201.2689812113,370,9568.1976334727,5939.8234124954,40.545966725036,6.1323918300563,1.6264065853124,4993.8172288549
0.00022694397676564,5204.4356295626,370,10143.868430803,6297.1930070625,42.985415625084,6.5013473073284,1.7242593700907,5294.2703247317
0.00023853677867235,5206.9042390501,370,10748.609301764,6672.6089584959,45.548051181407,6.8889342023599,1.827053499352,5609.8956130186
0.00025070922067441,5208.8043074073,370,11383.818734126,7066.9394314554,48.239799592979,7.2960488256129,1.9350266887021,5941.4229884657
0.00026349028477656,5210.2476156888,370,12050.973234884,7481.101024014,51.066917671223,7.7236374911687,2.0484299154914,6289.6230653059
0.00027691040208382,5211.3291298425,370,12751.630633063,7916.0608180045,54.036006835928,8.1726986335461,2.1675279802287,6655.308901032
0.00029100152525645,5212.1282346836,370,13487.433451524,8372.8384721953,57.154027403525,8.6442849687382,2.2926000797219,7039.3377561807
0.00030579720458771,5212.7102038535,370,14260.112389031,8852.5083839173,60.428313342621,9.1395057259186,2.4239403989614,7442.6129116624
0.00032133266788553,5213.1278109884,370,15071.489953758,9356.2019447042,63.866587671277,9.6595289762094,2.5618587287464,7866.0855651286
0.00033764490434824,5213.422994439,370,15923.48428751,9885.1099143218,67.47697866242,10.205584083677,2.7066811157269,8310.7568268709
0.00035477275263408,5213.6284993694,370,16818.113216561,10440.484935485,71.268037009624,10.778964301574,2.8587505509683,8777.6798339981
0.00037275699333422,5213.7694355166,370,17757.498560737,11023.644208886,75.248754087159,11.381029534093,3.0184277024116,9267.9619993866
0.00039164044606937,5213.8647029203,370,18743.8707265,11635.972344524,79.428581413542,12.013209280138,3.1860916956073,9782.7674088536
0.00041146807144127,5213.9282662233,370,19779.573610937,12278.92440605,83.817451432609,12.677005776362,3.3621409472998,10323.319380599
0.00043228707808177,5213.9702398464,370,20867.069825356,12954.029153513,88.425799648875,13.373997345046,3.5469940533356,10890.903191443
0.00045414703505429,5213.9978074212,370,22008.946260708,13662.892498309,93.264588211475,14.105841961057,3.741090734678,11486.868981471
0.00047709998987544,5214.0159683143,370,23207.920002529,14407.201175109,98.345330979177,14.874281042817,3.9448928428311,12112.634841085
0.00050120059243765,5214.0281303821,370,24466.844605653,15188.726637134,103.68012011,15.681143473864,4.1588854264205,12769.690085837
0.00052650622512796,5214.0365681104,370,25788.71673763,16009.329180304,109.28165421319,16.528349860707,4.3835778604439,13459.598723666
0.0005530771394528,5214.0427674668,370,27176.683199858,16870.962301883,115.16326810186,17.417917032778,4.6195050397285,14184.003119286
0.00058097659949387,5214.047678709,370,28634.048336348,17775.677299754,121.3389641882,18.351962790808,4.8672286382758,14944.627860862
0.000610271032537,5214.051896866,370,30164.281841329,18725.62811929,127.8234455688,19.332710910843,5.1273384364037,15743.283834847
0.00064103018723228,5214.0557871943,370,31771.026978656,19723.076455871,134.63215085511,20.362496412176,5.4004537178864,16581.872515737
0.00067332729966233,5214.059570069,370,33458.109227842,20770.39712224,141.78129081162,21.443771098721,5.6872247396121,17462.390478474
0.00070723926771388,5214.0633768888,370,35229.545373495,21870.083691126,149.28788687313,22.579109384556,5.9883342766103,18386.934142258
0.00074284683416801,5214.0672858948,370,37089.553056852,23024.754424726,157.16981162012,23.771214415652,6.3044992456287,19357.704755528
0.00078023477894485,5214.0713444917,370,39042.560809991,24237.158503831,165.44583129953,25.022924500937,6.6364724107536,20377.01363284
0.00081949212096052,5214.0755827749,370,41093.21859504,25510.182570448,174.13565048549,26.337219867035,6.9850441748718,21447.287655298
0.00086071233007698,5214.0800215007,370,43246.408872395,26846.857598828,183.25995898184,27.717229752047,7.3510444610538,22571.075047069
0.00090399354964927,5214.0846766528,370,45507.258223598,28250.366110817,192.84048107498,29.166239854829,7.7353446882176,23751.051441363
0.00094943883020016,5214.0895619875,370,47881.149556073,29724.049752421,202.90002725242,30.68770015718,8.1388598456979,24990.026250074
0.00099715637477861,5214.0946904186,370,50373.734918483,31271.417249437,213.46254850894,32.285233137404,8.5625506716093,26290.94935209
0.001047259796586,5214.1000747533,370,52990.948957061,32896.152760994,224.55319336886,33.962642394662,9.0074259401624,27656.918116113
0.0010998683894837,5214.1057280811,370,55739.023044829,34602.12465082,236.1983677598,35.723921704608,9.4745448633583,29091.184774644
0.0011551074120263,5214.1116639801,370,58624.500117296,36393.394697076,248.42579788014,37.573264527805,9.965019612771,30597.164166655
0.0012131083856961,5214.1178966332,370,61654.250249914,38274.227762672,261.26459620978,39.51507399355,10.480017967415,32178.441867372
0.0012740094080493,5214.1244409003,370,64835.487014358,40249.10194907,274.74533082129,41.553973382863,11.020766093996,33838.782724487
0.0013379554815202,5214.1313123706,370,68175.784652557,42322.719257734,288.90009815623,43.694817135579,11.58855146617,35582.139821139
0.0014050988586647,5214.1385274072,370,71683.096109352,44500.016784612,303.76259944007,45.942702407752,12.184725929741,37412.66388697
0.0014755994046663,5214.1461031891,370,75365.771966693,46786.178474279,319.36822091748,48.302981206875,12.810708921116,39334.713179665
0.0015496249779681,5214.1540577536,370,79232.580324461,49186.647461746,335.75411809896,50.781273133796,13.467990846664,41352.863860493
0.0016273518299349,5214.1624100392,370,83292.727675219,51707.139031278,352.95930421938,53.383478761669,14.158136631016,43471.920888529
0.0017089650245001,5214.1711799314,370,87555.880822583,54353.654223088,371.02474311895,56.115793683777,14.882789442776,45696.929459492
0.0017946588787935,5214.1803883096,370,92032.189895385,57132.494120296,389.99344676771,58.98472326366,15.643674606482,48033.187016425
0.0018846374258016,5214.1900570974,370,96732.312512397,60050.274850131,409.91057766566,61.99709812267,16.442603710149,50486.255860775
0.0019791149001602,5214.2002093143,370,101667.43915514,63113.943335113,430.82355636222,65.160090401795,17.281478918163,53061.976393912
0.0020783162482366,5214.2108691306,370,106849.31980917,66330.793831684,452.78217435098,68.481230836472,18.162297499786,55766.481020569
0.0021824776637169,5214.2220619252,370,112290.2919372,69708.485295649,475.83871260834,71.968426685018,19.087156584059,58606.208747298
0.0022918471499712,5214.2338143457,370,118003.30985069,73255.059615769,500.04806605825,75.629980553347,20.058258152412,61587.920510675
0.0024066851105381,5214.246154372,370,124001.97554985,76978.960758886,525.46787425924,79.474610160786,21.077914280871,64718.71527172
0.0025272649691335,5214.2591113827,370,130300.57110522,80889.054872155,552.15865862466,83.511469094014,22.148552644323,68006.046914826
0.0026538738206586,5214.2727162254,370,136914.09265825,84994.651390208,580.18396650286,87.750168598519,23.272722295959,71457.741991398
0.00278681311476,5214.2870012899,370,143858.28612143,89305.525197494,609.61052246001,92.20080045944,24.453099735627,75082.018350417
0.0029263993735664,5214.302000585,370,151149.68466321,93831.939898525,640.50838712566,96.873961026231,25.692495281554,78887.504700243
0.0030729649453131,5214.3177498201,370,158805.64806667,98584.672251402,672.95112397904,101.78077643832,26.993859760584,82883.2611482
0.0032268587956472,5214.3342864895,370,166844.40405583,103575.03782277,707.0159744729,106.93292911178,28.360291532864,87078.800766783
0.003388447338498,5214.3516499622,370,175285.0916877,108814.91792522,742.78404191164,112.34268555009,29.795043867684,91484.112237803
0.0035581153084914,5214.3698815752,370,184147.80691352,114316.7879013,780.34048452131,118.02292554504,31.301532688027,96109.68362831
0.0037362666769844,5214.3890247322,370,193453.65041745,120093.74682133,819.77471817065,123.9871728374,32.883344702252,100966.52735485
0.003923325613902,5214.4091250066,370,203224.7778466,126159.54866578,861.1806292258,130.24962731019,34.54424594226,106066.20639544
0.0041197374976656,5214.4302302502,370,213484.45255186,132528.63506632,904.65679804479,136.82519879121,36.288190728456,111420.8618115
0.0043259699756173,5214.4523907068,370,224257.10096507,139216.16968349,950.30673364373,143.72954254525,38.119331082827,117043.24164541
0.0045425140774666,5214.475659132,370,235568.37074417,146238.07430273,998.23912009284,150.97909654033,40.042026612551,122946.73126208
0.0047698853844083,5214.5000909188,370,247445.19182477,153611.0667347,1048.5680752285,158.59112057671,42.060854887622,129145.38520697
0.0050086252566972,5214.525744229,370,259915.84052317,161352.70060995,1101.4134222969,166.58373737178,44.180622337195,135653.96065614
0.0052593021226005,5214.5526801322,370,273010.0068436,169481.40716272,1156.900975175,174.97597569839,46.406375690563,142487.95253782
0.0055225128317989,5214.5809627506,370,286758.86514948,178016.53910309,1215.1628378477,183.78781567944,48.743413989982,149663.63040919
