time,atomic_fraction_H_enclosure_2_at_interface,concentration_H_encl_1_inventory,concentration_H_encl_2_inventory,concentration_H_enclosure_1_at_interface,concentration_H_enclosure_2_at_interface,concentration_ratio_H2,mass_conservation_sum_encl1_encl2,pressure_H2_enclosure_1,pressure_H2_enclosure_1_at_interface,temperature
0,1.8,1.376770257095,9284.283,13.76770257095,92842.83,0.045184272081996,9285.6597702571,30000,30000,524.15
0.0001,1.8000470393097,1.3752120787482,9284.2844008001,11.341534246769,92845.256257021,0.037221335272997,9285.6596128789,29966.047094522,24713.348189332,524.15
0.00022,1.8001009165714,1.3736931537585,9284.2860052301,8.5627654251105,92848.035211158,0.028101382595348,9285.6596983838,29932.949524715,18658.375384673,524.15
0.000364,1.8001589261016,1.3719941322357,9284.2877327163,5.5710292570107,92851.027305019,0.018282773655945,9285.6597268485,29895.927628418,12139.344008126,524.15
0.0005368,1.8002122543239,1.3704201915229,9284.2893207961,2.8209931649301,92853.777940061,0.0092576816984886,9285.6597409877,29861.631258968,6146.9801887261,524.15
0.00074416,1.8002425987039,1.3695249918769,9284.2902244321,1.2567171088774,92855.343083457,0.0041241464428652,9285.659749424,29842.124744181,2738.4026544757,524.15
0.000992992,1.8002493741396,1.3693288378278,9284.2904262002,0.90836877099039,92855.692556027,0.0029809722168311,9285.659755038,29837.850522362,1979.3471706174,524.15
0.0012915904,1.8002482470976,1.3693664309,9284.2903926376,0.9678810448794,92855.634423935,0.0031762732265469,9285.6597590685,29838.669680212,2109.0251766223,524.15
0.00164990848,1.800247102279,1.3694035974958,9284.2903585457,1.0285942587973,92855.575374932,0.0033755154740278,9285.6597621432,29839.479545088,2241.3200463111,524.15
0.002079890176,1.8002468849891,1.3694125450344,9284.2903520749,1.0418009688269,92855.564167264,0.0034188558542725,9285.6597646199,29839.674513099,2270.0976363881,524.15
0.0025958682112,1.8002469619666,1.3694123554971,9284.2903543673,1.0402303273672,92855.568137715,0.0034137014409582,9285.6597667228,29839.670383059,2266.6751885577,524.15
0.00321504185344,1.8002470434685,1.3694118091549,9284.2903567943,1.038906780331,92855.572341525,0.0034093579080064,9285.6597686035,29839.658478192,2263.7911626369,524.15
0.003958050224128,1.8002471136704,1.3694114890349,9284.2903588849,1.0387422059398,92855.575962497,0.0034088177613219,9285.6597703739,29839.651502736,2263.4325529333,524.15
0.0048496602689536,1.8002471932613,1.3694108683844,9284.2903612551,1.0387844392786,92855.580067743,0.0034089562821969,9285.6597721235,29839.637978683,2263.5245799189,524.15
0.0059195923227443,1.8002472894814,1.36940980906,9284.2903641204,1.0387980361068,92855.585030712,0.0034090008115094,9285.6597739295,29839.614895867,2263.5542075814,524.15
0.0072035107872932,1.8002474052437,1.3694082968049,9284.2903675678,1.0387983334486,92855.591001656,0.0034090016776839,9285.6597758646,29839.581943634,2263.5548554929,524.15
0.0087442129447518,1.8002475441491,1.3694062968664,9284.2903717043,1.0387982360083,92855.598166306,0.0034090012263987,9285.6597780012,29839.53836472,2263.5546431694,524.15
0.010593055533702,1.8002477108,1.3694037486081,9284.290376667,1.0387985907781,92855.606762054,0.0034090022328513,9285.6597804157,29839.482837846,2263.5554162173,524.15
0.012811666640443,1.8002479107422,1.3694005707489,9284.2903826212,1.0387990678116,92855.617074942,0.0034090036090131,9285.6597831919,29839.413591887,2263.5564556793,524.15
0.015473999968531,1.8002481506183,1.3693966601631,9284.2903897646,1.0387996329747,92855.629447592,0.0034090052365779,9285.6597864247,29839.328379722,2263.557687177,524.15
0.018668799962237,1.8002484383908,1.3693918887588,9284.2903983342,1.0388003096078,92855.644290711,0.0034090071846018,9285.659790223,29839.224410212,2263.5591615691,524.15
0.022502559954685,1.8002487836045,1.3693860995167,9284.2904086145,1.0388011213773,92855.662096608,0.0034090095217133,9285.659794714,29839.098261887,2263.5609304253,524.15
0.027103071945622,1.8002491976978,1.3693791015491,9284.290420946,1.0388020951812,92855.683455274,0.0034090123253523,9285.6598000475,29838.945775278,2263.5630523564,524.15
0.032623686334746,1.8002496943752,1.3693706640274,9284.2904357367,1.0388032632567,92855.709073571,0.0034090156883352,9285.6598064007,29838.7619206,2263.5655976079,524.15
0.039248423601695,1.8002502900506,1.3693605088169,9284.2904534755,1.0388046642431,92855.739798122,0.0034090197219223,9285.6598139844,29838.540637265,2263.5686503753,524.15
0.047198108322034,1.8002510043758,1.3693483016225,9284.2904747477,1.0388063444145,92855.776642553,0.0034090245593623,9285.6598230493,29838.274640938,2263.5723114902,524.15
0.056737729986441,1.8002518608685,1.3693336414037,9284.2905002535,1.0388083591645,92855.820819886,0.0034090303601716,9285.6598338949,29837.955192895,2263.5767016563,524.15
0.06818527598373,1.800252887657,1.3693160477814,9284.2905308306,1.0388107747723,92855.87378097,0.0034090373152225,9285.6598468784,29837.571825613,2263.5819652965,524.15
0.081922331180476,1.8002541183628,1.3692949461169,9284.2905674803,1.0388136704953,92855.937259977,0.0034090456527771,9285.6598624264,29837.112017646,2263.588275114,524.15
0.098406797416571,1.8002555931415,1.3692696499074,9284.2906113983,1.0388171410454,92856.013328102,0.0034090556456248,9285.6598810482,29836.560810006,2263.5958374869,524.15
0.11818815689988,1.8002573599076,1.3692393401065,9284.2906640115,1.0388212995075,92856.10445675,0.003409067619503,9285.6599033516,29835.900355566,2263.6048988291,524.15
0.14192578827986,1.80025947577,1.3692030409601,9284.2907270206,1.0388262807708,92856.213591555,0.0034090819629949,9285.6599300615,29835.109392523,2263.6157530655,524.15
0.17041094593583,1.8002620087045,1.3691595919415,9284.2908024498,1.038832245541,92856.344238671,0.0034090991391134,9285.6599620417,29834.162632852,2263.6287503762,524.15
0.204593135123,1.8002650394926,1.3691076153944,9284.2908927048,1.0388393850108,92856.500564751,0.0034091196987895,9285.6600003202,29833.030057242,2263.644307372,524.15
0.2456117621476,1.8002686639498,1.3690454795631,9284.2910006389,1.0388479262578,92856.687511901,0.0034091442964772,9285.6600461184,29831.67610953,2263.6629188586,524.15
0.29483411457712,1.8002729954649,1.3689712568245,9284.2911296287,1.0388581384373,92856.910928633,0.003409173708066,9285.6601008855,29830.058786562,2263.6851713284,524.15
0.35390093749255,1.8002781678582,1.368882677161,9284.2912836594,1.0388703398132,92857.177717317,0.0034092088512458,9285.6601663365,29828.128624364,2263.7117582825,524.15
0.42478112499105,1.8002843385537,1.3687770772613,9284.2914674189,1.038884905699,92857.495997779,0.0034092508085572,9285.6602444961,29825.827589043,2263.743497534,524.15
0.50983734998927,1.8002916920333,1.3686513461408,9284.2916864009,1.0389022769821,92857.87528548,0.0034093008520866,9285.6603377471,29823.087891846,2263.7813497821,524.15
0.61190481998712,1.8003004435086,1.3685018688643,9284.2919470145,1.0389229698204,92858.326680886,0.0034093604718001,9285.6604488833,29819.830762872,2263.8264397414,524.15
0.73438578398454,1.8003108426985,1.3683244708536,9284.292256696,1.0389475854498,92858.863064341,0.003409431404137,9285.6605811668,29815.965237528,2263.8800775126,524.15
0.88136294078145,1.8003231775462,1.3681143663608,9284.2926240202,1.0389768203958,92859.499287767,0.0034095156619816,9285.6607383865,29811.387033756,2263.9437808339,524.15
1.0577355289377,1.8003377776399,1.3678661159151,9284.293058802,1.0390114763873,92860.252351113,0.0034096155639308,9285.6609249179,29805.977624793,2264.0192966828,524.15
1.2693826347253,1.8003550170363,1.3675735987494,9284.2935721808,1.039052469375,92861.14154797,0.00340973376118,9285.6611457795,29799.603638337,2264.1086209272,524.15
1.5233591616703,1.8003753161261,1.3672300070798,9284.2941766754,1.0391008368635,92862.188561828,0.0034098732597722,9285.6614066824,29792.116731907,2264.2140143032,524.15
1.8281309940044,1.8003991421625,1.3668278691789,9284.2948862004,1.0391577426633,92863.4174933,0.0034100374356323,9285.6617140695,29783.354095612,2264.3380127689,524.15
2.1938571928053,1.8004270081118,1.3663591067987,9284.2957160317,1.0392244781744,92864.854800853,0.0034102300397917,9285.6620751385,29773.139703388,2264.4834303012,524.15
2.6327286313664,1.8004594696352,1.365815128918,9284.2966827166,1.0393024595148,92866.529145127,0.0034104551917306,9285.6624978455,29761.28635579,2264.6533526393,524.15
3.1593743576396,1.8004971202919,1.3651869574143,9284.2978039311,1.0393932202831,92868.471141527,0.0034107173600577,9285.6629908885,29747.598418377,2264.8511215143,524.15
3.7913492291676,1.8005405854856,1.3644653710254,9284.2990982994,1.0394984005415,92870.713047967,0.0034110213319558,9285.6635636705,29731.874958669,2265.0803106428,524.15
4.5497190750011,1.8005905162077,1.3636410429974,9284.300585208,1.0396197336866,92873.288442158,0.003411372175867,9285.664226251,29713.9127455,2265.3446971179,524.15
5.4597628900013,1.8006475841492,1.3627046379109,9284.3022846595,1.0397590340502,92876.231969484,0.0034117752052565,9285.6649892974,29693.508358893,2265.6482343919,524.15
6.5518154680015,1.8007124800385,1.3616468289296,9284.3042172239,1.0399181889767,92879.579257272,0.0034122359539829,9285.6658640529,29670.458565889,2265.9950350123,524.15
7.8622785616018,1.8007859168716,1.3604582033045,9284.3064041343,1.0400991592523,92883.36708139,0.0034127601744141,9285.6668623376,29644.558261485,2266.3893715576,524.15
9.4348342739222,1.8008686388606,1.3591290445173,9284.3088675536,1.0403039907042,92887.633827815,0.0034133538667355,9285.6679965982,29615.595721505,2266.8357019112,524.15
11.321901128707,1.800961435527,1.3576490112579,9284.3116309943,1.0405348374938,92892.420219552,0.0034140233417051,9285.6692800055,29583.345607476,2267.3387200185,524.15
13.586381354448,1.8010651588603,1.3560067657947,9284.3147198292,1.0407939947361,92897.770201659,0.0034147753110317,9285.670726595,29547.56086878,2267.9034269642,524.15
16.303757625338,1.8011807405805,1.3541896210966,9284.3181618063,1.0410839358054,92903.731831662,0.0034156169929389,9285.6723514274,29507.965053385,2268.5352122627,524.15
19.564609150405,1.8013092068931,1.3521832647504,9284.3219874876,1.0414073492978,92910.35804056,0.0034165562188669,9285.6741707523,29464.246291974,2269.2399343994,524.15
23.477630980486,1.8014516896729,1.3499715802309,9284.3262305826,1.0417671724731,92917.707209731,0.0034176015318737,9285.6762021629,29416.053403405,2270.0239937007,524.15
28.173257176583,1.8016094349583,1.3475365418058,9284.3309282018,1.0421666210885,92925.843609017,0.0034187622755975,9285.6784647436,29362.993604664,2270.894397343,524.15
33.8080086119,1.8017838108265,1.3448581335267,9284.3361210911,1.0426092180276,92934.837802954,0.0034200486796742,9285.6809792246,29304.630745678,2271.8588217343,524.15
40.56971033428,1.8019763166049,1.3419142471878,9284.3418539066,1.0430988237373,92944.767125877,0.0034214719496096,9285.6837681538,29240.483085811,2272.9256788382,524.15
48.683752401136,1.8021885943495,1.3386805383268,9284.3481755574,1.043639670443,92955.716273959,0.0034230443666401,9285.6868560957,29170.020156118,2274.1041907276,524.15
58.420602881363,1.8024224425316,1.3351302419234,9284.3551396134,1.0442364007008,92967.778011192,0.0034247793994201,9285.6902698554,29092.658743382,2275.4044735919,524.15
70.104823457636,1.8026798315077,1.3312339575934,9284.3628047676,1.044894110132,92981.053967275,0.0034266918273633,9285.6940387251,29007.75820947,2276.8376308551,524.15
84.125888149163,1.8029629204898,1.326959410605,9284.3712353419,1.0456183942418,92995.655512965,0.0034287978755083,9285.6981947525,28914.61528385,2278.4158551944,524.15
100.951165779,1.8032740759982,1.3222711893101,9284.3805018393,1.0464153995577,93011.704711838,0.0034311153616108,9285.7027730286,28812.45834218,2280.1525399719,524.15
121.14149893479,1.8036158919119,1.3171304567822,9284.3906815426,1.0472918795595,93029.335354488,0.0034336638567843,9285.7078119994,28700.441122864,2282.0624011066,524.15
145.36989872175,1.8039912112629,1.3114946340935,9284.4018591668,1.0482552559718,93048.694082655,0.003436464861298,9285.7133538008,28577.635825619,2284.1616106314,524.15
174.4439784661,1.8044031499227,1.3053170528164,9284.4141275681,1.0493136860614,93069.941610966,0.0034395419973357,9285.7194446209,28443.025539437,2286.4679433344,524.15
209.33287415933,1.8048551223428,1.2985465742109,9284.4275885161,1.0504761366695,93093.254054612,0.00344292122077,9285.7261350903,28295.495944636,2289.0009380782,524.15
251.19954899119,1.8053508695279,1.2911271722709,9284.4423535332,1.0517524658199,93118.824372185,0.0034466310543049,9285.7334807055,28133.826227373,2291.7820756219,524.15
301.43955878943,1.8058944894345,1.2829974774904,9284.4585448093,1.0531535128605,93146.863933614,0.0034507028446803,9285.7415422868,27956.679138265,2294.8349750436,524.15
361.72757054731,1.8064904699987,1.2740902779217,9284.4762961969,1.0546911982388,93177.604223729,0.0034551710470113,9285.7503864748,27762.590120375,2298.1856111509,524.15
434.07318465678,1.807143725005,1.2643319737902,9284.4957542951,1.0563786341636,93211.298692336,0.0034600735397774,9285.7600862689,27549.955425197,2301.8625556144,524.15
520.88792158813,1.8078596330098,1.2536419816178,9284.5170796294,1.0582302475916,93248.224761886,0.003465451974494,9285.7707216111,27317.019128442,2305.8972449574,524.15
625.06560590576,1.8086440795354,1.2419320834817,9284.540447935,1.0602619171923,93288.686003785,0.0034713521647064,9285.7823800185,27061.858950283,2310.3242790037,524.15
750.07882708691,1.8095035027396,1.2291057167361,9284.5660515525,1.0624911261993,93333.014494029,0.0034778245196699,9285.7951572692,26782.370778322,2315.1817539431,524.15
900.09469250429,1.8104449427552,1.2150571997756,9284.5941009441,1.0649371333576,93381.573358099,0.00348492452894,9285.8091581439,26476.251796855,2320.511634827,524.15
1080.1137310052,1.811476094866,1.1996708942209,9284.6248263388,1.0676211645318,93434.759513729,0.0034927133051118,9285.824497233,26140.982230808,2326.3601730861,524.15
1296.1365772062,1.8126053666453,1.1828203364658,9284.6584795144,1.0705666279636,93493.006618077,0.0035012581931657,9285.8412998509,25773.806422029,2332.7783755784,524.15
1555.3639926474,1.813841939124,1.1643675260775,9284.6953357258,1.073799356636,93556.788222757,0.0035106334562182,9285.8597032519,25371.717323432,2339.8225327042,524.15
1866.4368911769,1.8151958319697,1.1441630975492,9284.735695785,1.0773478818372,93626.621135706,0.00352092104934,9285.8798588826,24931.460241522,2347.5548145056,524.15
2239.7243694123,1.8166779725346,1.122049468916,9284.7798883014,1.081243742585,93703.068982654,0.0035322114947082,9285.9019377703,24449.601445128,2356.0439449057,524.15
2687.6693432947,1.818300268467,1.0978714540977,9284.8282720839,1.0855218364238,93786.745952352,0.0035446048738697,9285.926143538,23922.759409712,2365.3659661,524.15
3225.2033119537,1.820075683372,1.0715011897913,9284.8812387107,1.0902208179685,93878.320699134,0.0035582119553794,9285.9527399005,23348.147977547,2375.605106989,524.15
3870.2440743444,1.8220183149249,1.0428836847441,9284.9392152697,1.0953835531201,93978.520371923,0.0035731554805815,9285.9820989545,22724.568882202,2386.854772919,524.15
4644.2929892133,1.8241434760394,1.0121028888736,9285.002667319,1.101057642224,94088.134800854,0.0035895716457874,9286.0147702079,22053.85140312,2399.2186856517,524.15
5573.151687056,1.8264677879235,0.97945664515565,9285.072102371,1.1072960503243,94208.021297031,0.0036076118909915,9286.0515590161,21342.485576838,2412.8122566957,524.15
6687.7821244672,1.8290093288597,0.94551828692452,9285.1480752567,1.1141579819689,94339.11232652,0.0036274453918908,9286.0935935436,20602.964410044,2427.7644935178,524.15
8025.3386493606,1.831787989756,0.91116010738166,9285.2311999404,1.1217104418317,94482.43384942,0.0036492635278233,9286.1423600478,19854.29528317,2444.2214001597,524.15
9630.4064792327,1.8348264227689,0.87752092870317,9285.3221793841,1.1300316048044,94639.154249243,0.0036732895623671,9286.1997003128,19121.293277095,2462.3533207103,524.15
11556.487875079,1.8381523093342,0.84591124742271,9285.4218752404,1.1392181647763,94810.701316456,0.003699799774759,9286.2677864878,18432.514278909,2482.3709523913,524.15
13867.785550095,1.8418028804764,0.81765974596388,9285.5314453832,1.149399649973,94998.995403099,0.0037291646107748,9286.3491051291,17816.91044857,2504.5565388626,524.15
16641.342760114,1.8458322619478,0.79391597121792,9285.6525667051,1.1607621118123,95206.8282803,0.0037619167046648,9286.4464826763,17299.530559872,2529.3154885438,524.15
19969.611412137,1.8503210361574,0.7754412134955,9285.7877256657,1.1735808204389,95438.356336324,0.0037988445961725,9286.5631668792,16896.963226058,2557.2476186008,524.15
23963.533794564,1.8553858375373,0.7624416031333,9285.9405124519,1.1882576387914,95699.595499382,0.0038410995576223,9286.7029540551,16613.700053531,2589.2285935171,524.15
28756.240653477,1.8611859151582,0.75450944656898,9286.1158286569,1.205356551733,95998.759733015,0.00389029667291,9286.8703381035,16440.85734742,2626.487343523,524.15
34507.488884173,1.8679243724257,0.75072072768136,9286.3199418685,1.2256333076541,96346.324978875,0.0039485985159853,9287.0706625962,16358.300678256,2670.670654028,524.15
41408.986761007,1.8758441775955,0.74988129468635,9286.5603920033,1.2500626379753,96754.823381661,0.0040187913875334,9287.310273298,16340.009325926,2723.9024772649,524.15
49690.784213209,1.8852217880545,0.75084233738794,9286.8458367312,1.2798762292512,97238.51443369,0.0041043918397908,9287.5966790686,16360.950569317,2788.8666739904,524.15
59628.94115585,1.8963625878579,0.75276249213267,9287.1859647296,1.3166323441742,97813.14964603,0.0042098429815293,9287.9387272217,16402.790986805,2868.9587185423,524.15
71554.72948702,1.9096011363311,0.75521881556508,9287.5915712399,1.3623411709956,98495.985371217,0.0043408683713289,9288.3467900555,16456.314588577,2968.5588368318,524.15
85865.675484424,1.9253058759168,0.75815592251937,9288.0747927354,1.4196704062799,99306.025630967,0.0045050511757634,9288.832948658,16520.314524787,3093.4799737947,524.15
103038.81068131,1.9438844439608,0.76175196596475,9288.6493957242,1.4922600149936,100264.29609461,0.0047127168547831,9289.4111476902,16598.672771419,3251.6536596503,524.15
123646.57291757,1.9657840872668,0.76630615543505,9289.330968462,1.5851926482634,101393.86546156,0.0049782443495065,9290.0972746175,16697.909142487,3454.1550562143,524.15
148375.88760109,1.9914818832905,0.77220715927017,9290.1368730138,1.7057040915469,102719.3410769,0.0053220331921466,9290.909080173,16826.492770831,3716.7510325491,524.15
178051.0652213,2.0214592770722,0.77997976723821,9291.0858107128,1.8642803889981,104265.55556285,0.0057735216710149,9291.86579048,16995.858892622,4062.2908129895,524.15
213661.27836556,2.0561522841565,0.79038363807317,9292.1967578631,2.07637495493,106054.99831781,0.0063758811226368,9292.9871415012,17222.560568839,4524.4475849829,524.15
256393.53413868,2.0958613293758,0.80455533436663,9293.4867975298,2.3650660648481,108103.16505934,0.0071932320711472,9294.2913528641,17531.363643726,5153.5092060423,524.15
307672.24106641,2.1405930221784,0.8242044953621,9294.9669939019,2.7649175895817,110410.3966985,0.0083210322693054,9295.7911983972,17959.521375073,6024.7907927985,524.15
369206.68937969,2.1897930376329,0.85184639436121,9296.634990624,3.3265000757918,112948.10151563,0.0098980141407976,9297.4868370183,18561.841889843,7248.4862132569,524.15
443048.02735563,2.2419342266345,0.89088265099345,9298.4630161577,4.1175071793971,115637.51015256,0.012108350920145,9299.3538988087,19412.446914851,8972.1008095099,524.15
531657.63292676,2.2940258045358,0.94482855144029,9300.382796539,5.2060157420096,118324.35988118,0.015134511063168,9301.3276250904,20587.934985621,11343.974890177,524.15
637989.15961211,2.3414727495191,1.0142119241703,9302.2796275227,6.5966327205043,120771.64246291,0.018981905995659,9303.2938394469,22099.807551994,14374.147073216,524.15
