time,atomic_fraction_H_enclosure_2_at_interface,concentration_H_encl_1_inventory,concentration_H_encl_2_inventory,concentration_H_enclosure_1_at_interface,concentration_H_enclosure_2_at_interface,concentration_ratio_H2,mass_conservation_sum_encl1_encl2,pressure_H2_enclosure_1,pressure_H2_enclosure_1_at_interface,temperature
0,2,9.9538487993649,51579.35,19.90769759873,103158.7,0.06198235953055,51589.303848799,50000,50000,604.15
0.0001,1.9999914394372,9.9539854773972,51579.34872536,20.349242898165,103158.25845173,0.063357240714995,51589.302710837,50000.686558712,51108.981330577,604.15
0.00022,1.999983796797,9.9557413114183,51579.347587396,20.743439692771,103157.86424932,0.064584693373912,51589.303328707,50009.506433599,52099.042568576,604.15
0.000364,1.9999780573729,9.9568010574377,51579.346732814,21.039465993417,103157.56821356,0.065506465166958,51589.303533871,50014.829731355,52842.53964848,604.15
0.0005368,1.9999743788001,9.9574499444575,51579.346185086,21.229190452527,103157.37847516,0.066097233848675,51589.303635031,50018.089209336,53319.049948502,604.15
0.00074416,1.9999724294321,9.9577996467236,51579.345894832,21.329718865851,103157.27792803,0.066410262135838,51589.303694479,50019.845827671,53571.536236345,604.15
0.000992992,1.9999716572978,9.9579531976214,51579.345779864,21.369521304956,103157.23810184,0.066534200213961,51589.303733061,50020.617141868,53671.503695936,604.15
0.0012915904,1.9999715120123,9.9580015051819,51579.345758231,21.376985905498,103157.23060811,0.066557443733575,51589.303759736,50020.859799565,53690.25172168,604.15
0.00164990848,1.9999715909605,9.9580090054502,51579.345769986,21.372878650535,103157.23468021,0.06654465444377,51589.303778992,50020.897474782,53679.935975867,604.15
0.002079890176,1.9999716836187,9.9580095423092,51579.345783783,21.368057208109,103157.23945946,0.066529641297237,51589.303793325,50020.900171523,53667.826483038,604.15
0.0025958682112,1.9999717289216,9.9580137088049,51579.345790528,21.365669937885,103157.24179615,0.066522207756168,51589.303804237,50020.921100591,53661.830635926,604.15
0.00321504185344,1.9999717380359,9.9580207979385,51579.345791885,21.365139179727,103157.24226626,0.066520555084237,51589.303812683,50020.956710603,53660.497588354,604.15
0.003958050224128,1.9999717343709,9.9580279611035,51579.345791339,21.365255450615,103157.24207722,0.066520917155657,51589.303819301,50020.992692489,53660.789613306,604.15
0.0048496602689536,1.9999717300854,9.9580338280561,51579.345790701,21.365389170717,103157.24185618,0.06652133356568,51589.303824529,50021.022163264,53661.12546355,604.15
0.0059195923227443,1.9999717272729,9.958038400105,51579.345790283,21.365429454074,103157.24171111,0.066521459035052,51589.303828683,50021.0451295,53661.226638878,604.15
0.0072035107872932,1.9999717248487,9.9580420663599,51579.345789922,21.365428752331,103157.24158607,0.066521456890485,51589.303831988,50021.063545768,53661.224876387,604.15
0.0087442129447518,1.9999717220072,9.9580451150855,51579.345789499,21.365424426089,103157.24143951,0.066521443467946,51589.303834614,50021.078860073,53661.214010635,604.15
0.010593055533702,1.9999717185224,9.9580477058336,51579.34578898,21.365423116598,103157.24125977,0.066521439448789,51589.303836686,50021.091873874,53661.210721729,604.15
0.012811666640443,1.9999717143149,9.95804994498,51579.345788353,21.365422874901,103157.24104275,0.066521438766236,51589.303838298,50021.103121515,53661.210114685,604.15
0.015473999968531,1.9999717092659,9.9580519211147,51579.345787601,21.36542259826,103157.24078232,0.06652143798888,51589.303839523,50021.113048,53661.209419876,604.15
0.018668799962237,1.999971703209,9.9580537113869,51579.3457867,21.365422185243,103157.24046991,0.066521436803679,51589.303840411,50021.122040865,53661.208382547,604.15
0.022502559954685,1.9999716959414,9.958055383453,51579.345785617,21.365421675728,103157.24009505,0.066521435338164,51589.303841001,50021.130439958,53661.207102854,604.15
0.027103071945622,1.9999716872208,9.9580569984092,51579.345784319,21.365421066092,103157.23964525,0.066521433585084,51589.303841317,50021.138552178,53661.205571697,604.15
0.032623686334746,1.9999716767571,9.9580586137099,51579.345782761,21.365420335325,103157.23910554,0.06652143148385,51589.303841375,50021.146666128,53661.203736307,604.15
0.039248423601695,1.999971664202,9.9580602856601,51579.345780892,21.365419458511,103157.23845796,0.066521428962683,51589.303841177,50021.155064639,53661.20153411,604.15
0.047198108322034,1.9999716491377,9.9580620716508,51579.345778649,21.365418406449,103157.23768095,0.066521425937606,51589.30384072,50021.164035997,53661.19889176,604.15
0.056737729986441,1.9999716310633,9.9580640323071,51579.345775957,21.365417144163,103157.23674868,0.066521422308055,51589.30383999,50021.173884731,53661.195721413,604.15
0.06818527598373,1.9999716093779,9.958066233662,51579.345772729,21.365415629694,103157.23563016,0.066521417953382,51589.303838962,50021.184942539,53661.191917685,604.15
0.081922331180476,1.9999715833611,9.95806874945,51579.345768855,21.365413812725,103157.23428824,0.066521412728908,51589.303837604,50021.197579801,53661.187354203,604.15
0.098406797416571,1.9999715521491,9.9580716636127,51579.345764207,21.36541163293,103157.23267834,0.06652140646117,51589.303835871,50021.212218173,53661.181879449,604.15
0.11818815689988,1.9999715147064,9.9580750731061,51579.345758632,21.365409017993,103157.23074707,0.066521398942233,51589.303833705,50021.229344681,53661.175311796,604.15
0.14192578827986,1.999971469792,9.9580790911058,51579.345751945,21.365405881244,103157.22843042,0.066521389922887,51589.303831036,50021.249527827,53661.167433563,604.15
0.17041094593583,1.999971415919,9.9580838507128,51579.345743923,21.365402118835,103157.22565168,0.066521379104533,51589.303827774,50021.273436202,53661.157983931,604.15
0.204593135123,1.9999713513063,9.9580895092767,51579.345734303,21.365397606377,103157.222319,0.066521366129499,51589.303823812,50021.301860202,53661.14665048,604.15
0.2456117621476,1.9999712738213,9.9580962534634,51579.345722765,21.365392194925,103157.21832237,0.066521350569513,51589.303819019,50021.335737483,53661.133059124,604.15
0.29483411457712,1.9999711809114,9.9581043052148,51579.345708931,21.365385706211,103157.21353014,0.066521331911985,51589.303813236,50021.3761829,53661.116762127,604.15
0.35390093749255,1.9999710695232,9.958113928764,51579.345692346,21.365377926982,103157.20778481,0.066521309543731,51589.303806275,50021.424523745,53661.097223884,604.15
0.42478112499105,1.9999709360064,9.9581254388912,51579.345672466,21.365368602293,103157.2008981,0.06652128273168,51589.303797905,50021.482341216,53661.073804074,604.15
0.50983734998927,1.9999707760002,9.9581392106225,51579.345648641,21.365357427579,103157.19264508,0.066521250600094,51589.303787852,50021.551519136,53661.045737761,604.15
0.61190481998712,1.9999705842998,9.9581556905961,51579.345620098,21.365344039331,103157.18275731,0.066521212103732,51589.303775788,50021.634301053,53661.012111954,604.15
0.73438578398454,1.9999703547,9.9581754103297,51579.345585911,21.365328004142,103157.1709147,0.066521165996378,51589.303761321,50021.733356876,53660.971838112,604.15
0.88136294078145,1.9999700798117,9.95819900163,51579.345544981,21.365308805932,103157.15673614,0.066521110794092,51589.303743983,50021.851860285,53660.923620054,604.15
1.0577355289377,1.9999697508502,9.9582272143739,51579.345496,21.365285831115,103157.13976851,0.06652104473256,51589.303723214,50021.993578048,53660.865916704,604.15
1.2693826347253,1.99996935739,9.9582609368597,51579.345437414,21.365258351506,103157.11947409,0.066520965717943,51589.303698351,50022.162972252,53660.796899158,604.15
1.5233591616703,1.9999688870859,9.9583012188603,51579.345367388,21.365225504798,103157.09521611,0.066520871270739,51589.303668607,50022.365316096,53660.714401652,604.15
1.8281309940044,1.9999683253572,9.9583492973939,51579.345283748,21.365186272503,103157.06624251,0.066520758462346,51589.303633045,50022.606823349,53660.615866162,604.15
2.1938571928053,1.999967655036,9.9584066250537,51579.345183939,21.365139455373,103157.03166778,0.066520623844384,51589.303590564,50022.894790651,53660.498280666,604.15
2.6327286313664,1.9999668559826,9.9584749004722,51579.345064963,21.365083646485,103156.99045312,0.066520463371295,51589.303539863,50023.237750545,53660.358111549,604.15
3.1593743576396,1.9999659046731,9.9585561001312,51579.344923316,21.365017202435,103156.9413852,0.066520272317492,51589.303479416,50023.645631259,53660.19123125,604.15
3.7913492291676,1.9999647737722,9.9586525102444,51579.344754928,21.364938213406,103156.88305406,0.066520045191294,51589.303407438,50024.129916861,53659.992843094,604.15
4.5497190750011,1.9999634317069,9.9587667568399,51579.344555098,21.364844473348,103156.81383121,0.066519775649128,51589.303321855,50024.70379837,53659.757406379,604.15
5.4597628900013,1.9999618422674,9.958901831475,51579.344318436,21.364733451965,103156.73184895,0.066519456414977,51589.303220267,50025.382302926,53659.47856604,604.15
6.5518154680015,1.9999599642661,9.9590611093081,51579.344038807,21.36460227083,103156.63498287,0.066519079211641,51589.303099916,50026.182384565,53659.149092643,604.15
7.8622785616018,1.9999577512974,9.9592483556692,51579.343709302,21.364447686389,103156.52083938,0.066518634711823,51589.302957658,50027.122957226,53658.760839706,604.15
9.4348342739222,1.9999551516392,9.9594677170605,51579.343322221,21.364266082946,103156.3867507,0.066518112517893,51589.302789938,50028.224849548,53658.304726081,604.15
11.321901128707,1.9999521083409,9.959723693021,51579.342869083,21.364053478559,103156.22977935,0.066517501178761,51589.302592776,50029.510663536,53657.770750753,604.15
13.586381354448,1.9999485595244,9.9600210869231,51579.342340674,21.363805545885,103156.04673371,0.066516788249746,51589.302361761,50031.004527407,53657.148045208,604.15
16.303757625338,1.9999444389022,9.9603649369411,51579.341727125,21.363517650718,103155.83419469,0.066515960403914,51589.302092062,50032.731748832,53656.424970212,604.15
19.564609150405,1.9999396764675,9.9607604332149,51579.341018012,21.363184890587,103155.5885514,0.066515003540737,51589.301778445,50034.718398829,53655.589212762,604.15
23.477630980486,1.9999341992554,9.9612128334948,51579.34020247,21.362802161106,103155.30604036,0.066513902979965,51589.301415304,50036.990888039,53654.627952729,604.15
28.173257176583,1.9999279320126,9.9617273953991,51579.339269294,21.362364194726,103154.98278005,0.066512643571093,51589.30099669,50039.575626439,53653.527960181,604.15
33.8080086119,1.9999207975677,9.9623093473226,51579.338206994,21.36186558895,103154.61479003,0.066511209774996,51589.300516341,50042.49887721,53652.275666256,604.15
40.56971033428,1.999912716699,9.9629639181955,51579.337003772,21.361300797819,103154.19798407,0.066509585639544,51589.299967691,50045.786906222,53650.857141767,604.15
48.683752401136,1.9999036073704,9.9636964368876,51579.335647415,21.360664079523,103153.72813082,0.066507754649119,51589.299343852,50049.466481364,53649.257965637,604.15
58.420602881363,1.999893383353,9.9645124952264,51579.334125081,21.359949401215,103153.20078265,0.066505699451076,51589.298637576,50053.565691405,53647.462985821,604.15
70.104823457636,1.9998819524258,9.9654181492002,51579.332423038,21.359150314427,103152.61118285,0.066503401497644,51589.297841187,50058.114956679,53645.456006398,604.15
84.125888149163,1.9998692144812,9.9664201196813,51579.33052638,21.358259823667,103151.95416795,0.066500840668175,51589.2969465,50063.148037356,53643.219457558,604.15
100.951165779,1.9998550598682,9.9675259553875,51579.328418778,21.357270271285,103151.22408221,0.066497994938015,51589.295944734,50068.702852024,53640.734106408,604.15
121.14149893479,1.99983936816,9.9687441386318,51579.326082299,21.356173251755,103150.4147141,0.066494840131923,51589.294826438,50074.822008889,53637.978841706,604.15
145.36989872175,1.9998220073141,9.9700841401579,51579.32349728,21.354959553198,103149.51925296,0.066491349755696,51589.29358142,50081.553081226,53634.930526975,604.15
174.4439784661,1.999802833017,9.971556448414,51579.320642229,21.353619111924,103148.53025518,0.066487494865244,51589.292198677,50088.948754427,53631.56388634,604.15
209.33287415933,1.9997816879792,9.9731726009682,51579.317493721,21.352140963761,103147.43960787,0.066483243926404,51589.290666322,50097.066983801,53627.85138228,604.15
251.19954899119,1.9997584010433,9.9749452338733,51579.314026264,21.350513182723,103146.23848285,0.066478562638406,51589.288971498,50105.97124255,53623.763061593,604.15
301.43955878943,1.999732786097,9.976888150295,51579.31021214,21.348722806368,103144.91728057,0.066473413719039,51589.28710029,50115.730866495,53619.266367926,604.15
361.72757054731,1.9997046408467,9.9790164022936,51579.306021214,21.346755751841,103143.46556685,0.066467756663037,51589.285037617,50126.421464882,53614.325930898,604.15
434.07318465678,1.9996737455087,9.981346380063,51579.301420749,21.344596726499,103141.8720054,0.066461547484883,51589.282767129,50138.125368651,53608.903341641,604.15
520.88792158813,1.999639861446,9.9838959061231,51579.29637519,21.342229135134,103140.12428747,0.066454738451773,51589.280271096,50150.932103571,53602.956919779,604.15
625.06560590576,1.9996027297604,9.9866843338965,51579.290845964,21.339634984606,103138.20905927,0.066447277809101,51589.277530297,50164.938885417,53596.441473893,604.15
750.07882708691,1.99956206985,9.9897326503201,51579.284791254,21.336794786549,103136.11184752,0.066439109500392,51589.274523904,50180.251135407,53589.308057178,604.15
900.09469250429,1.9995175779431,9.9930635817364,51579.278165785,21.333687459128,103133.81698388,0.066430172884402,51589.271229367,50196.983012109,53581.503720674,604.15
1080.1137310052,1.9994689256253,9.9967017019657,51579.270920598,21.330290229044,103131.30752895,0.066420402452943,51589.2676223,50215.257954308,53572.971267167,604.15
1296.1365772062,1.9994157583808,10.000673541186,51579.263002828,21.326578535343,103128.56519704,0.066409727553768,51589.263676369,50235.209227931,53563.649009576,604.15
1555.3639926474,1.9993576941707,10.005007693947,51579.254355487,21.322525936848,103125.57028282,0.06639807212385,51589.259363181,50256.980468628,53553.470538473,604.15
1866.4368911769,1.9992943220814,10.009734924272,51579.244917256,21.318104025546,103122.30159165,0.066385354439673,51589.25465218,50280.726209697,53542.364504538,604.15
2239.7243694123,1.9992252010807,10.014888265337,51579.234622289,21.313282348738,103118.73637536,0.066371486892645,51589.249510555,50306.612382818,53530.254423037,604.15
2687.6693432947,1.9991498589289,10.020503110737,51579.223400039,21.308028343422,103114.85027614,0.066356375799588,51589.24390315,50334.816776483,53517.058509019,604.15
3225.2033119537,1.9990677913026,10.026617293744,51579.211175107,21.302307287091,103110.61728133,0.06633992126031,51589.237792401,50365.52943412,53502.689553739,604.15
3870.2440743444,1.9989784612025,10.033271150319,51579.197867136,21.296082269957,103106.00969283,0.066322017076674,51589.231138286,50398.952970628,53487.054854892,604.15
4644.2929892133,1.9988812987254,10.040507560789,51579.183390744,21.289314194546,103100.99811541,0.066302550750252,51589.223898305,50435.302781724,53470.056215602,604.15
5573.151687056,1.9987757013025,10.048371962744,51579.167655527,21.281961809656,103095.55146898,0.066281403578668,51589.21602749,50474.807108708,53451.590029712,604.15
6687.7821244672,1.9986610345172,10.056912315823,51579.150566126,21.27398178682,103089.63703072,0.066258450874019,51589.207478442,50517.706861616,53431.547473821,604.15
8025.3386493606,1.998536633638,10.066178941474,51579.132022394,21.26532884864,103083.22051423,0.06623356233034,51589.198201336,50564.254814258,53409.814829608,604.15
9630.4064792327,1.998401806021,10.07622394495,51579.111919674,21.255955959686,103076.26619339,0.066206602570881,51589.188143619,50614.712700843,53386.273963298,604.15
11556.487875079,1.9982558345582,10.087099331803,51579.0901492,21.245814592031,103068.73708022,0.066177431909901,51589.177248532,50669.341754751,53360.802992573,604.15
13867.785550095,1.9980979823691,10.098851778776,51579.066598663,21.234855078842,103060.59516691,0.066145907367634,51589.165450442,50728.376441784,53333.277174647,604.15
16641.342760114,1.9979274989562,10.111510669526,51579.041152948,21.2230270707,103051.80174329,0.066111883980673,51589.152663618,50791.964361419,53303.570052356,604.15
19969.611412137,1.9977436280514,10.125065830746,51579.013695071,21.210280109636,103042.31780153,0.066075216450942,51589.138760902,50860.054411274,53271.554895904,604.15
23963.533794564,1.9975456173014,10.139434209634,51578.98410733,21.196564329979,103032.10453575,0.066035761159525,51589.12354154,50932.229401964,53237.106463109,604.15
28756.240653477,1.997332729378,10.154420767698,51578.95227258,21.18183125593,103021.12391504,0.065993378458886,51589.106693347,51007.509619527,53200.103002572,604.15
34507.488884173,1.9971042516056,10.169685301495,51578.918075184,21.166034493197,103009.33918005,0.06594793466063,51589.087760485,51084.186159951,53160.427990799,604.15
41408.986761007,1.9968594931377,10.184729381415,51578.881399977,21.149129557256,102996.71469737,0.065899301539698,51589.066129358,51159.755320296,53117.969700839,604.15
49690.784213209,1.9965977400701,10.198914135616,51578.842124791,21.131070801948,102983.21364428,0.06584734749627,51589.041038927,51231.007930653,53072.613488202,604.15
59628.94115585,1.9963181105895,10.211512428467,51578.80009787,21.111801485829,102968.79053743,0.065791908972654,51589.011610299,51294.291455976,53024.216841569,604.15
71554.72948702,1.9960192347359,10.221791677498,51578.755088847,21.091231856407,102953.37471518,0.065732727389227,51588.976880524,51345.926000757,52972.554339364,604.15
85865.675484424,1.9956987182136,10.229116800158,51578.706707095,21.069202601775,102936.84268129,0.065669343962664,51588.935823895,51382.721429377,52917.225855188,604.15
103038.81068131,1.9953524660101,10.233054527431,51578.65429851,21.04543906847,102918.9832177,0.065600967925425,51588.887353037,51402.50135246,52857.541571792,604.15
123646.57291757,1.9949741016204,10.233451040351,51578.596855476,21.019512604246,102899.46742842,0.06552636520277,51588.830306517,51404.493109257,52792.424889925,604.15
148375.88760109,1.9945548090652,10.230451488784,51578.532988342,20.990831496024,102877.84059096,0.065443832201229,51588.76343983,51389.425814047,52720.389668173,604.15
178051.0652213,1.9940838410344,10.224442020034,51578.460994154,20.958677962747,102853.54836606,0.065351302087964,51588.685436174,51359.239155241,52639.633133879,604.15
213661.27836556,1.9935496829235,10.215924778301,51578.379020695,20.922290024777,102825.9968379,0.06524658020768,51588.594945473,51316.455494846,52548.241505617,604.15
256393.53413868,1.9929415809243,10.205371402307,51578.28528195,20.880967640262,102794.63133205,0.065127649381358,51588.490653353,51263.44396028,52444.456564364,604.15
307672.24106641,1.9922510207602,10.193117337009,51578.178263074,20.834174217935,102759.01268765,0.064992961998429,51588.371380411,51201.889552811,52326.930612168,604.15
369206.68937969,1.9914728778479,10.17934053102,51578.056872917,20.781613966539,102718.87658203,0.064841662707958,51588.236213448,51132.686140808,52194.920742278,604.15
443048.02735563,1.9906062601519,10.164121757303,51577.920547048,20.723286178859,102674.17700457,0.0646737448945,51588.084668805,51056.239461619,52048.425178462,604.15
531657.63292676,1.9896552960027,10.147542402525,51577.769338898,20.659533195368,102625.12689188,0.064490189160977,51587.916881301,50972.958335337,51888.303740072,604.15
637989.15961211,1.9886300826657,10.129768731535,51577.60403204,20.591096133295,102572.24705435,0.064293124400022,51587.733800771,50883.677940646,51716.417810688,604.15
765586.99163453,1.9875477272592,10.111097255466,51577.426265401,20.51917342543,102516.41986601,0.064085997209257,51587.537362656,50789.887707113,51535.777363675,604.15
