time,atomic_fraction_H_enclosure_2_at_interface,concentration_H_encl_1_inventory,concentration_H_encl_2_inventory,concentration_H_enclosure_1_at_interface,concentration_H_enclosure_2_at_interface,concentration_ratio_H2,mass_conservation_sum_encl1_encl2,pressure_H2_enclosure_1,pressure_H2_enclosure_1_at_interface,temperature
0,0.3,0.027766906393334,7736.9025,0.055533812786668,15473.805,0.00044643571607708,7736.9302669064,100,100,433.15
0.0001,0.29999999844155,0.027763964043762,7736.9024997679,0.055614196373963,15473.804919616,0.00044708192002101,7736.930263732,99.989403394348,100.14474710678,433.15
0.00022,0.29999999660746,0.02776596075066,7736.9024994949,0.055708797899843,15473.804825015,0.00044784242202804,7736.9302654556,99.996594353507,100.31509652299,433.15
0.000364,0.2999999944722,0.027766851041965,7736.9024991769,0.055818933022767,15473.80471488,0.00044872779868347,7736.930266028,99.999800657056,100.51341736105,433.15
0.0005368,0.29999999200758,0.027767500258318,7736.90249881,0.055946055979379,15473.804587756,0.00044974974060381,7736.9302663102,100.00213875099,100.74232827178,433.15
0.00074416,0.29999998918752,0.027768086057691,7736.9024983901,0.056091512738067,15473.804442299,0.00045091906803743,7736.9302664761,100.0042484544,101.00425294683,433.15
0.000992992,0.29999998599252,0.027768669495597,7736.9024979143,0.056256308260163,15473.804277503,0.00045224385987655,7736.9302665838,100.00634965321,101.30100102485,433.15
0.0012915904,0.29999998241475,0.027769276726334,7736.9024973816,0.056440846183255,15473.804092964,0.00045372736097035,7736.9302666583,100.00853653974,101.63329933796,433.15
0.00164990848,0.29999997846387,0.027769918834741,7736.9024967933,0.056644628673454,15473.803889181,0.00045536556923582,7736.9302667122,100.01084903505,102.0002514343,433.15
0.002079890176,0.29999997417338,0.027770597803578,7736.9024961545,0.056865927752247,15473.80366788,0.0004571445934525,7736.9302667523,100.01329427986,102.39874573478,433.15
0.0025958682112,0.29999996960728,0.027771308292166,7736.9024954746,0.057101441531962,15473.803432363,0.00045903788973709,7736.9302667829,100.0158530402,102.8228365146,433.15
0.00321504185344,0.29999996486369,0.027772038363712,7736.9024947683,0.057346109325542,15473.803187692,0.00046100477520891,7736.9302668067,100.01848232679,103.2634109706,433.15
0.003958050224128,0.29999996007679,0.027772769820989,7736.9024940556,0.057593009288682,15473.802940787,0.00046298960513322,7736.9302668254,100.02111660396,103.70800490491,433.15
0.0048496602689536,0.29999995541227,0.027773479230612,7736.9024933611,0.057833595403751,15473.802700194,0.00046492367803471,7736.9302668403,100.0236714785,104.14122946306,433.15
0.0059195923227443,0.29999995105479,0.027774139979183,7736.9024927122,0.058058342346736,15473.802475438,0.00046673041978514,7736.9302668522,100.02605110467,104.54593234894,433.15
0.0072035107872932,0.29999994718671,0.027774725559999,7736.9024921363,0.058257843546112,15473.802275925,0.0004683342109039,7736.9302668619,100.02816002098,104.90517510459,433.15
0.0087442129447518,0.29999994395983,0.027775213853311,7736.9024916558,0.058424268558284,15473.802109485,0.00046967210240765,7736.9302668697,100.02991856514,105.20485741312,433.15
0.010593055533702,0.29999994146577,0.027775591585963,7736.9024912845,0.058552891494289,15473.801980842,0.00047070610284234,7736.9302668761,100.03127893509,105.43646934386,433.15
0.012811666640443,0.29999993971396,0.027775857635422,7736.9024910236,0.058643224572282,15473.801890485,0.00047143229091962,7736.9302668813,100.03223708814,105.59913254571,433.15
0.015473999968531,0.29999993862713,0.02777602372984,7736.9024908618,0.058699253060182,15473.801834427,0.00047188270422356,7736.9302668855,100.03283526215,105.70002330954,433.15
0.018668799962237,0.29999993805968,0.027776111723603,7736.9024907773,0.058728486164031,15473.801805158,0.00047211770929752,7736.930266889,100.03315216372,105.75266349825,433.15
0.022502559954685,0.29999993783575,0.027776147937962,7736.902490744,0.058739992714834,15473.801793609,0.00047221021051987,7736.9302668919,100.03328258646,105.77338339884,433.15
0.027103071945622,0.29999993779309,0.027776156644709,7736.9024907376,0.058742141011659,15473.801791408,0.00047222748069001,7736.9302668943,100.03331394302,105.77725184711,433.15
0.032623686334746,0.29999993781552,0.027776155230743,7736.902490741,0.058740921658909,15473.801792565,0.00047221767830787,7736.9302668962,100.03330885075,105.77505615284,433.15
0.039248423601695,0.29999993784211,0.027776152837723,7736.9024907449,0.058739474720452,15473.801793937,0.00047220604636324,7736.9302668978,100.03330023251,105.7724506439,433.15
0.047198108322034,0.29999993785465,0.027776152236884,7736.9024907468,0.058738737936239,15473.801794583,0.0004722001233525,7736.930266899,100.03329806864,105.77112391307,433.15
0.056737729986441,0.29999993785597,0.027776153050893,7736.902490747,0.058738561834643,15473.801794651,0.00047219870767251,7736.9302669,100.03330100022,105.77080680609,433.15
0.06818527598373,0.29999993785286,0.027776154302857,7736.9024907465,0.058738591954062,15473.801794491,0.00047219894980465,7736.9302669008,100.03330550906,105.77086104227,433.15
0.081922331180476,0.29999993784904,0.027776155470968,7736.902490746,0.058738633539744,15473.801794294,0.00047219928411454,7736.9302669014,100.0333097159,105.77093592581,433.15
0.098406797416571,0.29999993784514,0.02777615647782,7736.9024907454,0.058738647301479,15473.801794093,0.00047219939474806,7736.9302669019,100.03331334199,105.77096070663,433.15
0.11818815689988,0.29999993784079,0.027776157397789,7736.9024907447,0.058738647578944,15473.801793868,0.00047219939698202,7736.9302669021,100.03331665517,105.77096120626,433.15
0.14192578827986,0.29999993783559,0.027776158296395,7736.902490744,0.058738646276286,15473.8017936,0.00047219938651406,7736.9302669022,100.03331989142,105.77095886056,433.15
0.17041094593583,0.29999993782934,0.027776159211275,7736.902490743,0.058738645889308,15473.801793278,0.00047219938340807,7736.9302669022,100.03332318628,105.77095816372,433.15
0.204593135123,0.29999993782182,0.027776160171694,7736.9024907419,0.058738645894449,15473.80179289,0.00047219938345531,7736.9302669021,100.03332664514,105.77095817298,433.15
0.2456117621476,0.2999999378128,0.027776161208754,7736.9024907406,0.058738645920439,15473.801792425,0.00047219938367134,7736.9302669018,100.03333038002,105.77095821978,433.15
0.29483411457712,0.29999993780198,0.027776162357006,7736.9024907389,0.058738645924929,15473.801791866,0.00047219938371595,7736.9302669013,100.03333451534,105.77095822787,433.15
0.35390093749255,0.29999993778899,0.027776163654832,7736.902490737,0.058738645924699,15473.801791196,0.00047219938372433,7736.9302669007,100.03333918935,105.77095822745,433.15
0.42478112499105,0.2999999377734,0.027776165145532,7736.9024907347,0.058738645924871,15473.801790393,0.00047219938373798,7736.9302668998,100.03334455797,105.77095822776,433.15
0.50983734998927,0.2999999377547,0.027776166878786,7736.9024907319,0.058738645925354,15473.801789428,0.00047219938375657,7736.9302668988,100.03335080012,105.77095822863,433.15
0.61190481998712,0.29999993773227,0.027776168912321,7736.9024907286,0.058738645925945,15473.801788271,0.00047219938377899,7736.9302668975,100.03335812372,105.7709582297,433.15
0.73438578398454,0.29999993770534,0.027776171313833,7736.9024907246,0.058738645926648,15473.801786882,0.00047219938380583,7736.9302668959,100.03336677255,105.77095823096,433.15
0.88136294078145,0.29999993767304,0.02777617416323,7736.9024907197,0.05873864592749,15473.801785216,0.00047219938383802,7736.9302668939,100.03337703439,105.77095823248,433.15
1.0577355289377,0.29999993763428,0.027776177555273,7736.902490714,0.0587386459285,15473.801783217,0.00047219938387664,7736.9302668915,100.03338925052,105.7709582343,433.15
1.2693826347253,0.29999993758778,0.027776181602706,7736.902490707,0.05873864592971,15473.801780818,0.00047219938392296,7736.9302668887,100.03340382699,105.77095823648,433.15
1.5233591616703,0.29999993753199,0.027776186439974,7736.9024906987,0.05873864593116,15473.801777941,0.00047219938397852,7736.9302668852,100.03342124797,105.77095823909,433.15
1.8281309940044,0.29999993746506,0.027776192227636,7736.9024906888,0.058738645932897,15473.801774488,0.00047219938404516,7736.930266881,100.03344209171,105.77095824222,433.15
2.1938571928053,0.29999993738476,0.027776199157626,7736.9024906768,0.058738645934977,15473.801770347,0.00047219938412508,7736.930266876,100.03346704945,105.77095824596,433.15
2.6327286313664,0.29999993728845,0.027776207459521,7736.9024906625,0.058738645937467,15473.801765379,0.0004721993842209,7736.9302668699,100.03349694797,105.77095825045,433.15
3.1593743576396,0.29999993717292,0.027776217407999,7736.9024906453,0.058738645940447,15473.80175942,0.00047219938433577,7736.9302668627,100.03353277651,105.77095825581,433.15
3.7913492291676,0.29999993703435,0.027776229331727,7736.9024906246,0.05873864594401,15473.801752273,0.00047219938447347,7736.930266854,100.03357571874,105.77095826223,433.15
4.5497190750011,0.29999993686818,0.027776243623916,7736.9024905999,0.058738645948268,15473.801743702,0.00047219938463848,7736.9302668435,100.03362719076,105.7709582699,433.15
5.4597628900013,0.29999993666893,0.027776260754869,7736.9024905702,0.058738645953352,15473.801733424,0.00047219938483616,7736.930266831,100.03368888634,105.77095827905,433.15
6.5518154680015,0.29999993643003,0.02777628128685,7736.9024905347,0.058738645959416,15473.801721102,0.00047219938507292,7736.930266816,100.03376283041,105.77095828997,433.15
7.8622785616018,0.29999993614367,0.027776305891662,7736.902490492,0.05873864596664,15473.801706332,0.00047219938535635,7736.9302667979,100.03385144241,105.77095830298,433.15
9.4348342739222,0.29999993580048,0.027776335371387,7736.9024904409,0.058738645975232,15473.801688631,0.00047219938569552,7736.9302667763,100.03395761098,105.77095831845,433.15
11.321901128707,0.2999999353893,0.027776370682756,7736.9024903797,0.058738645985434,15473.801667422,0.00047219938610114,7736.9302667504,100.03408478167,105.77095833682,433.15
13.586381354448,0.29999993489679,0.027776412965654,7736.9024903064,0.058738645997521,15473.801642019,0.00047219938658591,7736.9302667193,100.0342370597,105.77095835859,433.15
16.303757625338,0.29999993430709,0.027776463576312,7736.9024902186,0.058738646011802,15473.801611602,0.0004721993871648,7736.9302666821,100.03441932941,105.7709583843,433.15
19.564609150405,0.29999993360133,0.027776524125672,7736.9024901135,0.058738646028621,15473.8015752,0.00047219938785544,7736.9302666376,100.03463739245,105.77095841459,433.15
23.477630980486,0.29999993275711,0.027776596523401,7736.9024899878,0.058738646048349,15473.801531656,0.00047219938867843,7736.9302665843,100.03489812632,105.77095845011,433.15
28.173257176583,0.29999993174789,0.027776683027861,7736.9024898375,0.058738646071376,15473.801479601,0.0004721993896578,7736.9302665205,100.0352096643,105.77095849158,433.15
33.8080086119,0.29999993054232,0.027776786302133,7736.902489658,0.058738646098091,15473.801417418,0.00047219939082135,7736.9302664443,100.03558159724,105.77095853968,433.15
40.56971033428,0.29999992910344,0.027776909475819,7736.9024894438,0.058738646128847,15473.801343201,0.00047219939220099,7736.9302663532,100.03602519612,105.77095859506,433.15
48.683752401136,0.29999992738788,0.027777056211814,7736.9024891883,0.058738646163918,15473.801254714,0.00047219939383307,7736.9302662445,100.03655365253,105.77095865822,433.15
58.420602881363,0.29999992534495,0.027777230776451,7736.9024888841,0.05873864620342,15473.801149341,0.00047219939575841,7736.9302661149,100.03718233126,105.77095872935,433.15
70.104823457636,0.29999992291567,0.027777438110434,7736.9024885224,0.058738646247208,15473.80102404,0.00047219939802227,7736.9302659605,100.03792902584,105.7709588082,433.15
84.125888149163,0.29999992003183,0.027777683896687,7736.902488093,0.058738646294723,15473.800875294,0.00047219940067381,7736.9302657769,100.03881420278,105.77095889376,433.15
100.951165779,0.29999991661513,0.02777797461973,7736.9024875843,0.058738646344785,15473.800699063,0.00047219940376521,7736.9302655589,100.0398612155,105.7709589839,433.15
121.14149893479,0.29999991257632,0.027778317609691,7736.9024869829,0.058738646395319,15473.800490743,0.00047219940734999,7736.9302653005,100.0410964628,105.7709590749,433.15
145.36989872175,0.29999990781466,0.027778721062667,7736.9024862739,0.058738646443,15473.80024514,0.00047219941148072,7736.930264995,100.04254946217,105.77095916076,433.15
174.4439784661,0.29999990221762,0.027779194028577,7736.9024854406,0.058738646482808,15473.799956448,0.0004721994162056,7736.9302646346,100.04425280609,105.77095923244,433.15
209.33287415933,0.29999989566099,0.027779746358485,7736.9024844643,0.058738646507508,15473.799618262,0.00047219942156423,7736.9302642107,100.04624197226,105.77095927692,433.15
251.19954899119,0.29999988800938,0.027780388606523,7736.902483325,0.058738646507063,15473.799223596,0.00047219942758246,7736.9302637136,100.04855497043,105.77095927612,433.15
301.43955878943,0.29999987911729,0.027781131888029,7736.902482001,0.058738646468037,15473.798764949,0.0004721994342668,7736.9302631329,100.0512318315,105.77095920585,433.15
361.72757054731,0.29999986883051,0.027781987705584,7736.9024804693,0.058738646373061,15473.798234363,0.00047219944159898,7736.930262457,100.05431398095,105.77095903482,433.15
434.07318465678,0.29999985698769,0.027782967767817,7736.902478706,0.058738646200475,15473.797623518,0.00047219944953186,7736.9302616737,100.05784358637,105.77095872405,433.15
520.88792158813,0.29999984342178,0.02778408383948,7736.902476686,0.058738645924272,15473.796923797,0.00047219945798783,7736.9302607699,100.06186301744,105.77095822669,433.15
625.06560590576,0.29999982796087,0.027785347670547,7736.902474384,0.058738645514464,15473.796126333,0.00047219946686111,7736.9302597316,100.06641459063,105.77095748874,433.15
750.07882708691,0.29999981042793,0.027786771050493,7736.9024717734,0.058738644937929,15473.795221996,0.00047219947602477,7736.9302585444,100.07154076467,105.77095645057,433.15
900.09469250429,0.29999979063921,0.027788366015811,7736.9024688269,0.058738644159688,15473.794201307,0.00047219948534221,7736.9302571929,100.07728488789,105.77095504919,433.15
1080.1137310052,0.29999976840118,0.02779014520392,7736.9024655157,0.058738643144411,15473.793054284,0.00047219949468173,7736.9302556609,100.08369247282,105.77095322098,433.15
1296.1365772062,0.29999974350646,0.027792122303913,7736.902461809,0.058738641857819,15473.79177023,0.00047219950393096,7736.9302539313,100.09081281948,105.7709509042,433.15
1555.3639926474,0.2999997157294,0.027794312522403,7736.902457673,0.058738640267621,15473.790337507,0.00047219951300792,7736.9302519856,100.09870069312,105.77094804073,433.15
1866.4368911769,0.29999968482198,0.027796732980495,7736.902453071,0.058738638343717,15473.788743323,0.00047219952186581,7736.930249804,100.10741775385,105.77094457634,433.15
2239.7243694123,0.29999965051064,0.02779940299258,7736.9024479622,0.058738636057642,15473.786973566,0.0004721995304911,7736.9302473651,100.11703356069,105.7709404598,433.15
2687.6693432947,0.29999961249382,0.027802344233687,7736.9024423016,0.058738633381485,15473.785012683,0.00047219953889673,7736.9302446458,100.12762617431,105.77093564083,433.15
3225.2033119537,0.29999957044001,0.027805580848058,7736.9024360399,0.058738630286643,15473.782843575,0.00047219954711367,7736.9302416207,100.139282548,105.77093006793,433.15
3870.2440743444,0.29999952398556,0.027809139562633,7736.9024291229,0.058738626742716,15473.780447484,0.00047219955518373,7736.9302382625,100.15209893641,105.77092368637,433.15
4644.2929892133,0.29999947273202,0.027813049846428,7736.9024214914,0.05873862271668,15473.77780386,0.00047219956315501,7736.9302345412,100.16618146955,105.77091643666,433.15
5573.151687056,0.2999994162429,0.027817344124427,7736.9024130803,0.058738618172288,15473.774890188,0.00047219957107964,7736.9302304244,100.18164692306,105.77090825356,433.15
6687.7821244672,0.2999993540399,0.027822058035811,7736.9024038184,0.058738613069584,15473.771681798,0.00047219957901283,7736.9302258764,100.19862364822,105.77089906509,433.15
8025.3386493606,0.2999992855987,0.02782723072575,7736.9023936276,0.058738607364449,15473.768151645,0.00047219958701256,7736.9302208583,100.21725262282,105.77088879183,433.15
9630.4064792327,0.29999921034447,0.02783290516727,7736.9023824224,0.058738601008137,15473.764270081,0.00047219959513936,7736.9302153275,100.23768861032,105.77087734599,433.15
11556.487875079,0.29999912764683,0.027839128515107,7736.9023701088,0.058738593946786,15473.760004591,0.00047219960345631,7736.9302092373,100.26010143424,105.77086463058,433.15
13867.785550095,0.29999903681452,0.027845952494981,7736.9023565839,0.058738586120902,15473.755319519,0.00047219961202921,7736.9302025364,100.28467738007,105.77085053847,433.15
16641.342760114,0.29999893708944,0.027853433831605,7736.9023417349,0.058738577464823,15473.750175764,0.0004721996209268,7736.9301951687,100.31162073674,105.77083495143,433.15
19969.611412137,0.29999882764026,0.027861634718776,7736.9023254378,0.058738567906124,15473.744530447,0.00047219963022115,7736.9301870725,100.34115548956,105.77081773904,433.15
23963.533794564,0.2999987075554,0.027870623335272,7736.902307557,0.058738557364997,15473.738336548,0.00047219963998807,7736.9301781804,100.37352717825,105.77079875758,433.15
28756.240653477,0.29999857583536,0.027880474410712,7736.9022879436,0.058738545753555,15473.731542514,0.00047219965030766,7736.9301684181,100.40900493476,105.7707778488,433.15
34507.488884173,0.2999984313844,0.027891269846019,7736.9022664344,0.058738532975093,15473.724091827,0.00047219966126488,7736.9301577043,100.44788371785,105.77075483856,433.15
41408.986761007,0.29999827300139,0.027903099393563,7736.9022428505,0.058738518923272,15473.715922534,0.00047219967295016,7736.9301459499,100.49048676255,105.77072953538,433.15
49690.784213209,0.29999809936982,0.027916061402603,7736.9022169957,0.058738503481226,15473.706966731,0.00047219968546012,7736.9301330571,100.53716826483,105.77070172882,433.15
59628.94115585,0.29999790904692,0.027930263636168,7736.902188655,0.058738486520593,15473.697149999,0.00047219969889834,7736.9301189187,100.58831632347,105.77067118772,433.15
71554.72948702,0.29999770045173,0.027945824166112,7736.902157593,0.058738467900449,15473.686390795,0.00047219971337617,7736.9301034172,100.64435616357,105.77063765834,433.15
85865.675484424,0.29999747185205,0.027962872353446,7736.9021235515,0.058738447466142,15473.674599772,0.00047219972901364,7736.9300864239,100.7057536671,105.77060086219,433.15
103038.81068131,0.29999722135024,0.02798154991914,7736.9020862476,0.058738425048024,15473.661679051,0.0004721997459404,7736.9300677976,100.77301922931,105.77056049378,433.15
123646.57291757,0.29999694686764,0.028002012092079,7736.9020453715,0.058738400460056,15473.647521418,0.00047219976429681,7736.9300473836,100.84671189298,105.77051621811,433.15
148375.88760109,0.29999664612764,0.028024428718591,7736.9020005837,0.058738373498285,15473.632009444,0.00047219978423507,7736.9300250124,100.92744334428,105.77046766792,433.15
178051.0652213,0.2999963166371,0.028048984808837,7736.9019515122,0.058738343939191,15473.615014536,0.00047219980592042,7736.9300004971,101.01587988056,105.77041444072,433.15
213661.27836556,0.29999595566622,0.028075878798599,7736.9018977499,0.058738311537872,15473.596395892,0.00047219982953253,7736.9299736287,101.11273615032,105.77035609551,433.15
256393.53413868,0.29999556022652,0.028105314313632,7736.9018388504,0.058738276026072,15473.57599937,0.00047219985526687,7736.9299441647,101.2187454933,105.77029214924,433.15
307672.24106641,0.29999512704697,0.028137477903532,7736.9017743253,0.058738237110036,15473.55365625,0.00047219988333636,7736.9299118032,101.33457975098,105.77022207295,433.15
