time,atomic_fraction_H_enclosure_2_at_interface,concentration_H_encl_1_inventory,concentration_H_encl_2_inventory,concentration_H_enclosure_1_at_interface,concentration_H_enclosure_2_at_interface,concentration_ratio_H2,mass_conservation_sum_encl1_encl2,pressure_H2_enclosure_1,pressure_H2_enclosure_1_at_interface,temperature
0,1.6,6.8838512854751,41263.48,13.76770257095,82526.96,0.047925157788236,41270.363851285,30000,30000,524.15
0.0001,1.6000126905495,6.8811747216218,41263.481889582,13.113133126487,82527.614570295,0.045646430743283,41270.363064303,29988.335466257,28573.684808145,524.15
0.00022,1.600027819867,6.8793493285218,41263.484142288,12.332774574142,82528.394930656,0.042929822607353,41270.363491616,29980.380356432,26873.27354129,524.15
0.000364,1.6000457761042,6.8768176038053,41263.486815913,11.406607157357,82529.321101699,0.039705653514594,41270.363633517,29969.347035352,24855.142893829,524.15
0.0005368,1.6000669856119,6.8737295572849,41263.48997394,10.312641091066,82530.415074322,0.035897391264711,41270.363703498,29955.88924962,22471.376842842,524.15
0.00074416,1.6000918697807,6.870065528066,41263.493679113,9.0291428816749,82531.698583573,0.031429403157268,41270.363744641,29939.921316554,19674.617827799,524.15
0.000992992,1.6001207482928,6.8657923365232,41263.497979029,7.5396257121372,82533.188118454,0.026244329158522,41270.363771366,29921.298638496,16428.94086348,524.15
0.0012915904,1.6001535987155,6.8609195216158,41263.502870351,5.8452496561994,82534.882521908,0.020346246242998,41270.363789872,29900.062786477,12736.873765416,524.15
0.00164990848,1.6001893998761,6.8556022418566,41263.508201028,3.9986901122734,82536.729122498,0.013918554097043,41270.363803269,29876.889945263,8713.1969004994,524.15
0.002079890176,1.6002241911754,6.8504319512424,41263.513381339,2.2042367096247,82538.523635104,0.007672376080626,41270.363813291,29854.357686503,4803.0599838979,524.15
0.0025958682112,1.6002478190936,6.8469215188119,41263.51689946,0.98560459639924,82539.742347763,0.0034306085506108,41270.363820978,29839.05913217,2147.6450220799,524.15
0.003153124489216,1.6002536536537,6.846058291862,41263.517768207,0.68475388568557,82540.043290583,0.0023834286704819,41270.363826499,29835.29716704,1492.0874753579,524.15
0.003710380767232,1.6002535614902,6.8460759130315,41263.517754484,0.68960147424269,82540.038536852,0.0024003017822987,41270.363830397,29835.373960547,1502.6504328276,524.15
0.0043790883008512,1.6002533343302,6.8461131442681,41263.517720661,0.7014314823415,82540.026820085,0.002441478766519,41270.363833805,29835.536215229,1528.4281717885,524.15
0.0051815373411942,1.6002533077506,6.8461200777889,41263.517716703,0.7029385765479,82540.025449128,0.0024467245429768,41270.363836781,29835.56643169,1531.712149341,524.15
0.0061444761896059,1.6002533162408,6.8461214162504,41263.517717967,0.70266413497951,82540.025887043,0.0024457692852856,41270.363839383,29835.572264739,1531.1141376531,524.15
0.0073000028076999,1.6002533215663,6.8461229097025,41263.51771876,0.70258565968909,82540.026161731,0.0024454961315772,41270.36384167,29835.578773242,1530.9431389915,524.15
0.0086866347494126,1.6002533261188,6.846124256758,41263.517719438,0.70258631977831,82540.026396545,0.002445498425677,41270.363843695,29835.584643744,1530.9445773344,524.15
0.010350593079468,1.6002533315608,6.8461252618553,41263.517720248,0.70258820003292,82540.026677241,0.0024455049661377,41270.36384551,29835.589023984,1530.9486744333,524.15
0.012347343075534,1.6002533381329,6.8461259385811,41263.517721227,0.70258830718049,82540.027016226,0.0024455053340654,41270.363847165,29835.591973172,1530.9489079092,524.15
0.014743443070814,1.6002533460224,6.8461263063175,41263.517722402,0.70258828491857,82540.027423158,0.0024455052505498,41270.363848708,29835.593575777,1530.9488594002,524.15
0.01761876306515,1.6002533554891,6.8461263721513,41263.517723811,0.70258828606922,82540.027911445,0.0024455052473214,41270.363850183,29835.593862682,1530.9488619075,524.15
0.021069147058352,1.6002533668489,6.8461261342507,41263.517725503,0.70258829071043,82540.02849738,0.002445505254796,41270.363851637,29835.592825906,1530.9488720207,524.15
0.025209607850196,1.6002533804806,6.8461255818828,41263.517727532,0.70258829607292,82540.029200493,0.0024455052630453,41270.363853114,29835.590418672,1530.9488837056,524.15
0.030178160800408,1.6002533968384,6.8461246946759,41263.517729968,0.70258830247019,82540.030044217,0.0024455052728134,41270.363854663,29835.586552201,1530.9488976454,524.15
0.036140424340662,1.6002534164674,6.846123441689,41263.517732891,0.70258831014753,82540.031056666,0.0024455052845375,41270.363856332,29835.581091653,1530.9489143744,524.15
0.043295140588967,1.6002534400216,6.8461217802098,41263.517736398,0.70258831936041,82540.032271579,0.0024455052986071,41270.363858178,29835.573850884,1530.9489344494,524.15
0.051880800086933,1.600253468286,6.84611965421,41263.517740606,0.70258833041558,82540.033729437,0.0024455053154901,41270.36386026,29835.564585722,1530.9489585387,524.15
0.062183591484493,1.6002535022022,6.8461169923954,41263.517745656,0.70258834368137,82540.03547881,0.0024455053357492,41270.363862649,29835.552985466,1530.9489874451,524.15
0.074546941161564,1.6002535429,6.8461137057737,41263.517751716,0.70258835959975,82540.03757798,0.0024455053600592,41270.363865422,29835.538662285,1530.9490221314,524.15
0.08938296077405,1.6002535917353,6.8461096846536,41263.517758987,0.70258837870095,82540.04009687,0.0024455053892299,41270.363868672,29835.52113814,1530.9490637532,524.15
0.10718618430903,1.6002536503343,6.8461047949701,41263.517767713,0.70258840162119,82540.043119373,0.002445505424233,41270.363872508,29835.499828775,1530.9491136967,524.15
0.12855005255101,1.6002537206487,6.8460988738124,41263.517778182,0.70258842912372,82540.046746141,0.0024455054662342,41270.363877056,29835.474024218,1530.949173625,524.15
0.15418669444139,1.6002538050193,6.8460917240034,41263.517790745,0.70258846212425,82540.051097922,0.0024455055166319,41270.363882469,29835.442865167,1530.9492455336,524.15
0.18495066470984,1.6002539062545,6.8460831075529,41263.517805818,0.70258850172127,82540.05631957,0.0024455055771038,41270.363888926,29835.405314456,1530.949331816,524.15
0.22186742903198,1.6002540277232,6.8460727377701,41263.517823905,0.70258854923247,82540.062584842,0.0024455056496624,41270.363896642,29835.360122677,1530.9494353436,524.15
0.26616754621855,1.6002541734658,6.846060269776,41263.517845605,0.70258860623843,82540.070102154,0.0024455057367216,41270.363905875,29835.30578684,1530.9495595602,524.15
0.31932768684243,1.6002543483287,6.8460452891126,41263.517871642,0.70258867463477,82540.079121467,0.0024455058411767,41270.363916931,29835.240500726,1530.9497085968,524.15
0.38311985559109,1.6002545581234,6.8460272980797,41263.51790288,0.70258875669484,82540.08994254,0.0024455059664999,41270.363930178,29835.162095344,1530.9498874067,524.15
0.45967045808948,1.6002548098183,6.8460056993659,41263.517940356,0.70258885514456,82540.1029248,0.0024455061168548,41270.363946056,29835.067967597,1530.9501019299,524.15
0.55153118108754,1.6002551117677,6.8459797764581,41263.517985316,0.70258897325204,82540.118499156,0.002445506297233,41270.363965092,29834.954994901,1530.9503592876,524.15
0.66176404868522,1.6002554739855,6.845948670217,41263.518039249,0.70258911493468,82540.137182113,0.0024455065136186,41270.363987919,29834.819433107,1530.9506680159,524.15
0.79404348980244,1.6002559084719,6.8459113509011,41263.518103942,0.70258928488719,82540.159592642,0.0024455067731828,41270.364015293,29834.656794574,1530.9510383446,524.15
0.9527788191431,1.6002564296041,6.8458665847929,41263.518181537,0.70258948873431,82540.186472299,0.0024455070845183,41270.364048122,29834.461702729,1530.9514825301,524.15
1.1432612143519,1.6002570546008,6.8458128944401,41263.518274597,0.70258973321293,82540.218709224,0.0024455074579173,41270.364087492,29834.227718798,1530.9520152521,524.15
1.3718400886024,1.6002578040765,6.8457485113678,41263.518386192,0.70259002638893,82540.257366694,0.0024455079057033,41270.364134703,29833.947135721,1530.9526540864,524.15
1.6461347377031,1.6002587026993,6.8456713199392,41263.518519994,0.70259037791499,82540.303717074,0.0024455084426254,41270.364191314,29833.610733501,1530.9534200661,524.15
1.9752883166239,1.6002597799717,6.8455787908631,41263.518680397,0.70259079933648,82540.359282081,0.0024455090863269,41270.364259188,29833.20748942,1530.954338349,524.15
2.3702726113289,1.6002610711541,6.8454679026485,41263.51887265,0.70259130445358,82540.425880434,0.0024455098578994,41270.364340552,29832.724235745,1530.9554390056,524.15
2.8442537649748,1.6002626183557,6.8453350491327,41263.519103023,0.7025919097488,82540.505684085,0.0024455107825383,41270.364438072,29832.145256724,1530.9567579516,524.15
3.4130311493499,1.6002644718156,6.8451759310441,41263.519378998,0.70259263489,82540.601284341,0.0024455118903136,41270.364554929,29831.451816024,1530.9583380436,524.15
4.0955640106001,1.6002666914044,6.8449854294684,41263.519709488,0.70259350331978,82540.715769287,0.0024455132170746,41270.364694917,29830.621605283,1530.9602303631,524.15
4.9146034441003,1.6002693483727,6.8447574590767,41263.520105102,0.70259454294266,82540.852813985,0.0024455148055061,41270.364862561,29829.628104484,1530.9624957147,524.15
5.8974507643005,1.6002725273755,6.8444847991329,41263.520578446,0.70259578692149,82541.016784888,0.0024455167063525,41270.365063245,29828.439845475,1530.9652063605,524.15
7.0768675485408,1.6002763287978,6.8441589006904,41263.521144466,0.70259727459336,82541.212859777,0.0024455189798298,41270.365303366,29827.019571725,1530.9684480165,524.15
8.4921676896291,1.6002808713995,6.8437696691269,41263.521820845,0.70259905251337,82541.447164222,0.0024455216972369,41270.365590514,29825.323290614,1530.972322127,524.15
10.190527858935,1.6002862952903,6.8433052223962,41263.522628446,0.70260117563057,82541.726924981,0.0024455249427759,41270.365933668,29823.299219881,1530.9769484265,524.15
12.228560062102,1.6002927652224,6.8427516272441,41263.523591799,0.70260370859356,82542.060639872,0.0024455288155797,41270.366343426,29820.886638046,1530.9824677853,524.15
14.674198705903,1.6003004741683,6.8420926183307,41263.524739637,0.70260672717381,82542.458262293,0.0024455334319326,41270.366832256,29818.014660344,1530.9890453102,524.15
17.608965078464,1.6003096471106,6.8413093088781,41263.52610546,0.70261031978079,82542.931396693,0.0024455389276475,41270.367414769,29814.600977711,1530.9968736468,524.15
21.130684725537,1.6003205449232,6.8403799062082,41263.527728111,0.70261458902447,82543.493498782,0.0024455454605385,41270.368108018,29810.5506171,1531.0061763834,524.15
25.356748302024,1.6003334681652,6.8392794512727,41263.529652343,0.70261965325814,82544.160071206,0.0024455532128907,41270.368931794,29805.75480634,1531.0172114133,524.15
30.428024593809,1.6003487605379,6.8379796076164,41263.531929331,0.70262564800769,82544.94884185,0.0024455623937931,41270.369908938,29800.090054434,1531.0302740493,524.15
36.513556143951,1.6003668116864,6.8364485312486,41263.534617092,0.70263272716645,82545.879908356,0.002445573241155,41270.371065624,29793.417584456,1531.0456996268,524.15
43.816194004122,1.6003880589732,6.8346508570064,41263.53778075,0.7026410638128,82546.975829597,0.0024455860231945,41270.372431607,29785.583274122,1531.0638652858,524.15
52.579359436326,1.6004129878328,6.8325478366208,41263.541492582,0.70265085049897,82548.261643972,0.0024456010391706,41270.374040419,29776.418257484,1531.0851906001,524.15
63.095157954971,1.6004421303721,6.8300976554343,41263.54583182,0.70266230010324,82549.764797206,0.0024456186234152,41270.375929476,29765.740305194,1531.1101394343,524.15
75.714116177346,1.6004760620462,6.8272559347305,41263.550884148,0.70267564026438,82551.514970903,0.0024456391284978,41270.378140082,29753.356013672,1531.139207816,524.15
90.856866044195,1.6005153965495,6.8239763921231,41263.556740942,0.70269111775435,82553.543819014,0.0024456629443443,41270.380717334,29739.063683094,1531.1729334646,524.15
109.02816588441,1.6005607795175,6.8202115834495,41263.563498337,0.70270899238177,82555.884643008,0.0024456904818228,41270.38370992,29722.656550586,1531.2118825064,524.15
130.83372569268,1.6006128821933,6.8159135931133,41263.57125628,0.70272953556626,82558.572065156,0.0024457221726158,41270.387169873,29703.925798752,1531.2566463682,524.15
157.00039746259,1.6006723967207,6.8110344910713,41263.580117831,0.70275302859967,82561.641785796,0.0024457584667552,41270.391152322,29682.662547239,1531.3078379885,524.15
188.40040358649,1.6007400349813,6.8055263582151,41263.59018899,0.70277976222522,82565.130523313,0.0024457998320384,41270.395715349,29658.657963347,1531.3660909005,524.15
226.08041093517,1.6008165326156,6.7993407239514,41263.601579295,0.70281003818585,82569.076221565,0.0024458467563339,41270.400920019,29631.700810989,1531.4320626059,524.15
271.29641975358,1.6009026589292,6.7924273736927,41263.614403296,0.702844173055,82573.518560842,0.0024458997533328,41270.40683067,29601.572253709,1531.5064429224,524.15
325.55563033568,1.6009992319017,6.7847326512598,41263.628782795,0.70288250411345,82578.49973199,0.0024459593715209,41270.413515446,29568.038456506,1531.5899667891,524.15
390.6666830342,1.6011071360049,6.7761975421466,41263.644849493,0.70292539646271,82584.065355494,0.002446026205303,41270.421047035,29530.842232651,1531.6834297667,524.15
468.79994627242,1.6012273397642,6.7667558947295,41263.662747613,0.70297325025112,82590.265387265,0.0024461009067116,41270.429503508,29489.695291678,1531.7877037837,524.15
562.55986215828,1.6013609105181,6.7563330597651,41263.682636091,0.70302650705538,82597.15487993,0.0024461841963115,41270.438969151,29444.272310273,1531.9037510414,524.15
675.07176122132,1.601509025533,6.7448450252181,41263.704690237,0.70308565507499,82604.794556128,0.0024462768727498,41270.449535262,29394.207161838,1532.0326353327,524.15
810.08604009696,1.6016729805852,6.7321979013264,41263.729103013,0.70315123352877,82613.251251147,0.0024463798214568,41270.461300914,29339.090672388,1532.1755316223,524.15
972.10317474774,1.6018541981963,6.7182874960961,41263.756086259,0.70322383706791,82622.598337735,0.0024464940236579,41270.474373755,29278.468770548,1532.3337356627,524.15
1166.5237363287,1.6020542374347,6.7029987612624,41263.78587216,0.70330412094956,82632.91623163,0.0024466205668246,41270.488870921,29211.840073037,1532.5086752677,524.15
1399.8284102258,1.6022748060977,6.6862050176501,41263.818715058,0.70339280733253,82644.293019898,0.0024467606571965,41270.504920076,29138.652508769,1532.7019240306,524.15
1679.7940189023,1.6025177751344,6.6677669775128,41263.854893609,0.70349069271404,82656.825204878,0.0024469156345419,41270.522660586,29058.299058182,1532.9152175289,524.15
2015.7527493142,1.6027851948739,6.6475316138661,41263.894713198,0.70359865642137,82670.618541221,0.0024470869891868,41270.542244812,28970.112825762,1533.1504718281,524.15
2418.9032258084,1.6030793128103,6.6253309050425,41263.938508605,0.7037176701506,82685.788953203,0.0024472763814685,41270.56383951,28873.361568786,1533.4098042663,524.15
2902.6837976014,1.6034025929535,6.6009804543212,41263.986646887,0.70384880865622,82702.463532857,0.0024474856639603,41270.587627341,28767.241681626,1533.6955567474,524.15
3483.2204837531,1.6037577368816,6.5742779720368,41264.039530533,0.70399326176351,82720.781625824,0.0024477169069503,41270.613808505,28650.871580747,1534.0103219159,524.15
4179.8645071351,1.6041477066518,6.5450016063912,41264.097600891,0.70415234791239,82740.896013091,0.0024479724277724,41270.642602497,28523.284430335,1534.3569726691,524.15
5015.8373351935,1.6045757497336,6.512908109732,41264.161341902,0.7043275294785,82762.974197023,0.0024482548246987,41270.674250012,28383.420150901,1534.7386955423,524.15
6019.0047288635,1.6050454261432,6.4777308261023,41264.231284175,0.70452043016642,82787.199800937,0.0024485670162671,41270.709015001,28230.116648962,1535.1590286086,524.15
7222.8056012676,1.6055606379774,6.4391774841266,41264.308009423,0.70473285483144,82813.77409246,0.0024489122871029,41270.747186908,28062.100198387,1535.6219046708,524.15
8667.3666481525,1.6061256615634,6.3969277774891,41264.392155307,0.70496681216144,82842.917641762,0.0024492943415407,41270.789083085,27877.974896058,1536.1317006853,524.15
10400.839904414,1.606745182451,6.3506307134555,41264.484420713,0.70522454074214,82874.872126453,0.002449717366648,41270.835051427,27676.21110666,1536.6932945592,524.15
12481.007811929,1.6074243334872,6.2999017079751,41264.585571519,0.70550853914379,82909.902295454,0.002450186106631,41270.885473227,27455.132803063,1537.3121307089,524.15
14977.209300946,1.6081687362186,6.2443194038562,41264.69644688,0.70582160081136,82948.298104478,0.0024507059510849,41270.940766283,27212.903699845,1537.9942960868,524.15
17972.651087766,1.6089845458676,6.1834221863206,41264.817966087,0.70616685472386,82990.377035896,0.0024512830401601,41271.001388273,26947.512067994,1538.7466087781,524.15
21567.181231951,1.6098785001279,6.1167043682187,41264.951136049,0.70654781302326,83036.486615574,0.0024519243905082,41271.067840417,26656.754109977,1539.5767217852,524.15
25880.617404973,1.6108579720109,6.0436120186845,41265.097059438,0.70696842711742,83087.007138639,0.0024526380468966,41271.140671456,26338.215780909,1540.4932452764,524.15
31056.740812598,1.6119310269512,5.9635384400697,41265.256943561,0.70743315415722,83142.354614976,0.0024534332657179,41271.220482001,25989.253076919,1541.5058914402,524.15
37268.08890175,1.6131064843436,5.8758195023026,41265.43211001,0.70794703630925,83202.98394323,0.0024543207383896,41271.307929512,25606.971702166,1542.6256472224,524.15
44721.706608731,1.6143939836201,5.7797299814065,41265.624005134,0.70851579603106,83269.392319035,0.0024553128653131,41271.403735115,25188.211112005,1543.864981931,524.15
53666.047857108,1.6158040548905,5.674485201861,41265.834211395,0.70914595088404,83342.122878614,0.0024564240921368,41271.508696597,24729.551670447,1545.2380974158,524.15
64399.257355161,1.6173481940416,5.5592599631715,41266.064459652,0.70984495436846,83421.768572341,0.0024576713302096,41271.623719616,24227.397132626,1546.761234949,524.15
77279.108752825,1.6190389420135,5.4332494981645,41266.316642407,0.71062136836187,83508.976253742,0.002459074479861,41271.749891905,23678.240302614,1548.4530509715,524.15
92734.930430022,1.6208899677535,5.2958085255799,41266.59282805,0.71148507767108,83604.450958244,0.0024606570920429,41271.888636576,23079.26902817,1550.3350846037,524.15
111281.91644266,1.6229161543075,5.1466987172037,41266.895276175,0.71244755935156,83708.960343679,0.0024624472108224,41272.041974892,22429.444668843,1552.4323444962,524.15
133538.29965782,1.6251336891148,4.9864381000319,41267.226454281,0.71352222584647,83823.339347644,0.0024644784594319,41272.212892381,21731.024799533,1554.7740565343,524.15
160245.95951602,1.6275601698324,4.8166852063756,41267.589057821,0.71472487379084,83948.495645844,0.0024667914679855,41272.405743027,20991.237346478,1557.3946417877,524.15
192295.15134585,1.6302147789673,4.640539642435,41267.986041816,0.71607430459807,84085.418659528,0.0024694358258759,41272.626581458,20223.590472792,1560.3350687768,524.15
230754.18154165,1.6331187044104,4.4626338902564,41268.420690857,0.7175932735897,84235.201246329,0.0024724729577795,41272.883324747,19448.272653736,1563.6449216382,524.15
276905.01777661,1.6362962435209,4.2889313291329,41268.896793238,0.71931012649704,84399.096648248,0.0024759808149488,41273.185724567,18691.272448822,1567.3859660829,524.15
332286.02125857,1.6397773828831,4.1262031671977,41269.419038077,0.72126183182875,84578.651553812,0.0024800621944704,41273.545241244,17982.098956309,1571.6387569643,524.15
398743.22543691,1.6436028182406,3.9812086847186,41269.993780467,0.72349956201078,84775.965023017,0.0024848598648875,41273.974989152,17350.209292517,1576.514799653,524.15
478491.87045093,1.6478319171186,3.859661879779,41270.630251809,0.72609838266785,84994.099194231,0.0024905833572343,41274.489913689,16820.505207265,1582.1776631053,524.15
