time,atomic_fraction_H_enclosure_2_at_interface,concentration_H_encl_1_inventory,concentration_H_encl_2_inventory,concentration_H_enclosure_1_at_interface,concentration_H_enclosure_2_at_interface,concentration_ratio_H2,mass_conservation_sum_encl1_encl2,pressure_H2_enclosure_1,pressure_H2_enclosure_1_at_interface,temperature
0,2.5,2.842310174707,64474.1875,5.684620349414,128948.375,0.015830459776882,64477.029810175,10000,10000,423.15
0.0001,2.5000000029487,2.8419847941496,64474.187500439,5.6844682553765,128948.37515209,0.01583003621797,64477.029485233,9998.8552250197,9999.7324464465,423.15
0.00022,2.5000000064872,2.842160702175,64474.187500966,5.684285743523,128948.37533461,0.015829527950037,64477.029661668,9999.4741160438,9999.4113839265,423.15
0.000364,2.5000000107333,2.8422186584106,64474.187501598,5.6840667311466,128948.37555362,0.015828918033664,64477.029720257,9999.6780214306,9999.0261121529,423.15
0.0005368,2.5000000158286,2.8422467911201,64474.187502357,5.6838039191335,128948.37581643,0.015828186141923,64477.029749148,9999.7769997537,9998.5637910181,423.15
0.00074416,2.5000000219429,2.8422628629263,64474.187503267,5.6834885488811,128948.3761318,0.015827307883429,64477.02976613,9999.8335446246,9998.00901298,423.15
0.000992992,2.5000000292799,2.8422727963559,64474.18750436,5.6831101106056,128948.37651024,0.015826253990026,64477.029777156,9999.8684930611,9997.3432899375,423.15
0.0012915904,2.5000000380842,2.8422791129541,64474.187505671,5.6826559933688,128948.37696436,0.015824989342156,64477.029784784,9999.8907165266,9996.5444375799,423.15
0.00164990848,2.5000000486491,2.8422830508065,64474.187507244,5.6821110652107,128948.37750929,0.015823471799602,64477.029790294,9999.9045709342,9995.5858367858,423.15
0.002079890176,2.5000000613266,2.8422852710463,64474.187509131,5.6814571694632,128948.37816319,0.01582165079879,64477.029794402,9999.9123823259,9994.4355475716,423.15
0.0025958682112,2.5000000765391,2.8422861397572,64474.187511396,5.6806725205519,128948.37894784,0.015819465670194,64477.029797536,9999.9154386807,9993.0552462269,423.15
0.00321504185344,2.5000000947935,2.8422858549659,64474.187514114,5.6797309792851,128948.37988939,0.015816843620124,64477.029799969,9999.9144367097,9991.3989504516,423.15
0.003958050224128,2.5000001166977,2.8422845087395,64474.187517376,5.678601183671,128948.38101919,0.015813697310186,64477.029801885,9999.9097003286,9989.4114903494,423.15
0.0048496602689536,2.5000001429812,2.8422821189953,64474.18752129,5.6772455065792,128948.38237488,0.015809921954526,64477.029803409,9999.9012925754,9987.0266748148,423.15
0.0059195923227443,2.5000001745194,2.8422786458099,64474.187525986,5.675618805913,128948.3840016,0.015805391839255,64477.029804631,9999.8890729895,9984.1650929214,423.15
0.0072035107872932,2.5000002123621,2.8422739990593,64474.18753162,5.6736669262288,128948.3859535,0.015799956149687,64477.029805619,9999.8727244902,9980.7314780726,423.15
0.0087442129447518,2.5000002577691,2.8422680407246,64474.187538381,5.671324902718,128948.38829556,0.015793433968705,64477.029806422,9999.8517614905,9976.6115485666,423.15
0.010593055533702,2.5000003122511,2.8422605835365,64474.187546493,5.6685148089238,128948.39110571,0.015785608282987,64477.029807077,9999.8255251277,9971.6682214462,423.15
0.012811666640443,2.5000003776204,2.8422513867799,64474.187556227,5.665143178245,128948.39447742,0.015776218802298,64477.029807613,9999.793168502,9965.7370765825,423.15
0.015473999968531,2.5000004560505,2.8422401496091,64474.187567905,5.661097915868,128948.39852279,0.015764953359697,64477.029808054,9999.753633159,9958.6209243536,423.15
0.018668799962237,2.5000005501478,2.8422265019436,64474.187581915,5.6562446019374,128948.40337627,0.015751437616456,64477.029808417,9999.7056170569,9950.0833024329,423.15
0.022502559954685,2.5000006630373,2.8422099928225,64474.187598724,5.6504220681604,128948.40919904,0.015735222743603,64477.029808717,9999.6475335967,9939.8406944501,423.15
0.027103071945622,2.5000007984656,2.8421900759561,64474.187618889,5.6434371082523,128948.41618433,0.015715770691366,64477.029808965,9999.5774607853,9927.5532249644,423.15
0.032623686334746,2.5000009609229,2.842166092086,64474.187643079,5.6350581572946,128948.42456378,0.015692436587206,64477.029809171,9999.4930791781,9912.8135406185,423.15
0.039248423601695,2.50000115579,2.8421372476568,64474.187672094,5.6250077458607,128948.4346149,0.015664447721805,64477.029809341,9999.3915968364,9895.133535946,423.15
0.047198108322034,2.5000013895127,2.8421025891794,64474.187706894,5.6129535014425,128948.44667016,0.015630878489548,64477.029809483,9999.2696591335,9873.9285236896,423.15
0.056737729986441,2.5000016698098,2.8420609725506,64474.18774863,5.5984974323058,128948.46112771,0.015590620545886,64477.029809602,9999.1232408109,9848.4983836836,423.15
0.06818527598373,2.5000020059205,2.842011026461,64474.187798675,5.5811631878239,128948.47846408,0.015542347329602,64477.029809702,9998.947517239,9818.0051520929,423.15
0.081922331180476,2.5000024088978,2.8419511088944,64474.187858677,5.5603809457451,128948.49924938,0.015484471976567,64477.029809786,9998.7367113703,9781.4464361166,423.15
0.098406797416571,2.5000028919559,2.8418792555872,64474.187930603,5.5354695330848,128948.52416521,0.015415097529755,64477.029809859,9998.4839124046,9737.6239622677,423.15
0.11818815689988,2.5000034708803,2.8417931191967,64474.188016803,5.5056153477468,128948.55402575,0.015331958240032,64477.029809922,9998.1808617692,9685.1064967151,423.15
0.14192578827986,2.5000041645082,2.8416898978445,64474.188120082,5.469847620225,128948.58980263,0.015232350675018,64477.02980998,9997.8177017132,9622.18632734,423.15
0.17041094593583,2.5000049952912,2.8415662516812,64474.188243783,5.4270095518797,128948.63265387,0.015113053345352,64477.029810035,9997.3826817621,9546.8284921423,423.15
0.204593135123,2.5000059899451,2.8414182062431,64474.188391884,5.3757249103757,128948.68395747,0.014970233680626,64477.02981009,9996.8618187,9456.6120161918,423.15
0.2456117621476,2.5000071801965,2.8412410417257,64474.188569108,5.3143597909592,128948.74534987,0.014799341543959,64477.02981015,9996.2385070047,9348.6626446515,423.15
0.29483411457712,2.5000086036244,2.8410291680785,64474.188781052,5.2409795267469,128948.81876936,0.01459498923881,64477.02981022,9995.4930793977,9219.5770422684,423.15
0.35390093749255,2.5000103045891,2.8407759873243,64474.18903432,5.1533012580971,128948.90650401,0.014350819429043,64477.029810307,9994.6023224477,9065.3393566175,423.15
0.42478112499105,2.50001233522,2.8404737472543,64474.189336675,5.0486436328621,128949.01124263,0.014059365071733,64477.029810422,9993.5389618311,8881.2327341836,423.15
0.50983734998927,2.5000147564041,2.8401133955644,64474.189697181,4.9238768252415,128949.13612573,0.013711910240969,64477.029810577,9992.2711491443,8661.7513969056,423.15
0.61190481998712,2.5000176382492,2.8396845124751,64474.190126278,4.7753999724266,128949.28476943,0.013298427310501,64477.029810791,9990.7622248434,8400.5609502468,423.15
0.73438578398454,2.5000210613174,2.83917512942,64474.190635962,4.5990794663128,128949.46132906,0.012807405130488,64477.029811092,9988.970080342,8090.389830144,423.15
0.88136294078145,2.5000251158593,2.83857184638,64474.19123967,4.3902911371919,128949.6704597,0.012225966533337,64477.029811517,9986.8475708236,7723.1035097084,423.15
1.0577355289377,2.5000298999294,2.8378601169706,64474.191952003,4.1440211363331,128949.91721893,0.011540149312866,64477.02981212,9984.3435182551,7289.8819650468,423.15
1.2693826347253,2.5000355143642,2.8370250023511,64474.192787974,3.855129982642,128950.20680782,0.010735641590954,64477.029812976,9981.4053638378,6781.6841683006,423.15
1.5233591616703,2.5000420517143,2.8360528271666,64474.193761364,3.5189300010898,128950.54400009,0.0097993899175089,64477.029814191,9977.9849940516,6190.2638783126,423.15
1.8281309940044,2.5000495734019,2.8349345908816,64474.194881319,3.1323717995407,128950.93196385,0.0087229033955044,64477.02981591,9974.0507426281,5510.2568104897,423.15
2.1938571928053,2.5000580637389,2.8336728255462,64474.196145503,2.6964251963031,128951.36988991,0.0075088840236777,64477.029818328,9969.6115179911,4743.3690036681,423.15
2.6327286313664,2.5000673394297,2.8322950798608,64474.197526623,2.2207546178119,128951.84832401,0.0061842464455209,64477.029821703,9964.7642437644,3906.6014637913,423.15
3.1593743576396,2.5000768855519,2.8308783396349,64474.19894801,1.7321778958201,128952.34070679,0.0048236732045511,64477.029826349,9959.7797764162,3047.1303083568,423.15
3.7913492291676,2.5000856504068,2.8295795449884,64474.200253068,1.2852240153396,128952.79279231,0.0035790144836838,64477.029832613,9955.2102728552,2260.8792431883,423.15
4.5497190750011,2.5000921820007,2.8286152050472,64474.201225601,0.9550413125976,128953.12968768,0.0026595380918282,64477.029840806,9951.8174695302,1680.0441434863,423.15
5.4597628900013,2.5000956997641,2.8281017805003,64474.201749385,0.78208446114742,128953.31113163,0.002177897358669,64477.029851165,9950.0111059901,1375.7901373801,423.15
6.5518154680015,2.500096915743,2.8279334636414,64474.20193044,0.72980117449397,128953.37385103,0.002032301807178,64477.029863904,9949.4189227005,1283.8169123629,423.15
7.8622785616018,2.5000971367248,2.8279159685391,64474.201963344,0.73102558375643,128953.38524912,0.0020357113707487,64477.029879312,9949.3573702969,1285.9708104021,423.15
9.4348342739222,2.5000972285794,2.8279208002347,64474.201977021,0.74144831521437,128953.38998693,0.0020647358613919,64477.029897821,9949.3743694818,1304.3057753027,423.15
11.321901128707,2.5000974774881,2.8279059297881,64474.202014082,0.74678430414826,128953.40282548,0.0020795950642865,64477.029920012,9949.322051312,1313.692486474,423.15
13.586381354448,2.5000978809098,2.8278724635107,64474.20207415,0.74775915368586,128953.4236337,0.0020823095921809,64477.029946614,9949.2043080845,1315.4073759085,423.15
16.303757625338,2.5000983926443,2.8278281565643,64474.202150346,0.74747088931341,128953.45002864,0.0020815066398425,64477.029978503,9949.0484245119,1314.900280703,423.15
19.564609150405,2.5000990032888,2.8277754536744,64474.202241269,0.74725635972196,128953.48152529,0.0020809089781414,64477.030016723,9948.8630017868,1314.5228947418,423.15
23.477630980486,2.5000997305737,2.8277129605483,64474.20234956,0.74721575356917,128953.51903817,0.0020807955982189,64477.03006252,9948.6431344173,1314.4514631416,423.15
28.173257176583,2.5001006004309,2.8276383018243,64474.202479078,0.74722029858739,128953.56390484,0.0020808078928898,64477.03011738,9948.3804652524,1314.4594584305,423.15
33.8080086119,2.5001016416927,2.8275489551159,64474.202634119,0.74722114097908,128953.61761244,0.0020808098054083,64477.030183074,9948.0661198682,1314.4609403091,423.15
40.56971033428,2.5001028874996,2.827442092852,64474.202819616,0.74721726361159,128953.68187035,0.0020807984895498,64477.030261709,9947.6901501205,1314.4541195062,423.15
48.683752401136,2.5001043770439,2.8273143822289,64474.203041404,0.74721204478205,128953.75870008,0.0020807833366593,64477.030355786,9947.2408303235,1314.4449388939,423.15
58.420602881363,2.5001061567345,2.8271618803752,64474.203306394,0.74720606223844,128953.85049536,0.0020807659363015,64477.030468275,9946.704288411,1314.4344148074,423.15
70.104823457636,2.500108281306,2.8269799470141,64474.203622736,0.7471991093162,128953.96007938,0.0020807456902006,64477.030602683,9946.0641986604,1314.4221836965,423.15
84.125888149163,2.5001108150711,2.8267631456281,64474.204000006,0.74719101395584,128954.09076934,0.0020807220924641,64477.030763151,9945.3014339629,1314.4079428855,423.15
100.951165779,2.5001138332913,2.8265051363605,64474.204449409,0.74718164753684,128954.24644717,0.0020806947536125,64477.030954545,9944.3936890241,1314.3914661141,423.15
121.14149893479,2.5001174236209,2.8261985664809,64474.204983998,0.74717089803844,128954.43163404,0.0020806633252402,64477.031182564,9943.3150949905,1314.3725563229,423.15
145.36989872175,2.5001216875729,2.8258349640965,64474.205618887,0.74715868277545,128954.65156591,0.0020806275348721,64477.031453851,9942.0358454996,1314.3510680577,423.15
174.4439784661,2.500126741935,2.8254046427328,64474.206371465,0.74714497302656,128954.91226662,0.0020805872539589,64477.031776108,9940.5218609685,1314.3269507938,423.15
209.33287415933,2.5001327200351,2.8248966268854,64474.207261585,0.74712982690186,128955.22061314,0.0020805425888783,64477.032158212,9938.7345266657,1314.3003067547,423.15
251.19954899119,2.5001397727314,2.8242986108635,64474.208311709,0.74711343279238,128955.58438663,0.002080494001518,64477.03261032,9936.6305479122,1314.271467345,423.15
301.43955878943,2.5001480689833,2.8235969645508,64474.209546995,0.74709616484069,128956.01230192,0.0020804424635068,64477.033143959,9934.1619703484,1314.2410907313,423.15
361.72757054731,2.5001577958561,2.8227767990835,64474.210995295,0.74707865049168,128956.51400769,0.0020803896443172,64477.033772094,9931.2764110079,1314.2102806719,423.15
434.07318465678,2.5001691578408,2.8218221015486,64474.212687059,0.74706184805778,128957.10005148,0.0020803381275355,64477.03450916,9927.9175322217,1314.1807229656,423.15
520.88792158813,2.5001823754445,2.8207159392044,64474.214655118,0.74704712900807,128957.78180688,0.0020802916405815,64477.035371058,9924.0257601202,1314.1548302079,423.15
625.06560590576,2.5001976831323,2.8194407194828,64474.216934385,0.7470363554714,128958.57136747,0.00208025527136,64477.036375104,9919.5391993891,1314.1358781302,423.15
750.07882708691,2.5002153268887,2.817978472634,64474.219561485,0.74703193889274,128959.48142096,0.0020802356325724,64477.037539958,9914.3946276886,1314.1281087835,423.15
900.09469250429,2.5002355618739,2.8163111024429,64474.222574411,0.74703686235345,128960.52512834,0.0020802409247871,64477.038885514,9908.5283777421,1314.1367698029,423.15
1080.1137310052,2.5002586508382,2.814420533622,64474.226012286,0.74705464904523,128961.71604211,0.0020802808492321,64477.04043282,9901.8768558999,1314.1680589492,423.15
1296.1365772062,2.5002848640145,2.8122886819265,64474.229915348,0.74708926536526,128963.0681007,0.0020803663378965,64477.04220403,9894.3764369997,1314.2289536403,423.15
1555.3639926474,2.5003144810612,2.8098971942906,64474.234325236,0.74714496063224,128964.59572872,0.0020805091062784,64477.04422243,9885.9625500947,1314.3269289905,423.15
1866.4368911769,2.5003477952207,2.8072269545359,64474.239285614,0.74722606503121,128966.31405142,0.0020807210888868,64477.046512568,9876.5679394062,1314.4696023689,423.15
2239.7243694123,2.5003851192734,2.8042574154232,64474.244843054,0.74733678699053,128968.2392018,0.0020810138724158,64477.04910047,9866.1203143047,1314.664376958,423.15
2687.6693432947,2.5004267923287,2.8009658746208,64474.25104805,0.74748106091437,128970.3886709,0.0020813982687945,64477.052013925,9854.5398019749,1314.9181738961,423.15
3225.2033119537,2.5004731862849,2.7973268290428,64474.257955978,0.7476624871353,128972.78164101,0.0020818841451674,64477.055282807,9841.7366758053,1315.2373266447,423.15
3870.2440743444,2.5005247110946,2.7933115015629,64474.265627879,0.74788437745377,128975.4392572,0.0020824805483751,64477.058939381,9827.6096902437,1315.6276610994,423.15
4644.2929892133,2.5005818186653,2.788887551588,64474.274131043,0.74814988353056,128978.38482858,0.0020831960606784,64477.063018595,9812.0450625187,1316.0947214491,423.15
5573.151687056,2.5006450059373,2.7840189014848,64474.283539465,0.7484621610297,128981.64398699,0.0020840392553272,64477.067558367,9794.9158619602,1316.6440589245,423.15
6687.7821244672,2.5007148179823,2.77866557901,64474.293934309,0.74882452307424,128985.2448469,0.002085019122297,64477.072599888,9776.0814556293,1317.2815017478,423.15
8025.3386493606,2.5007918517788,2.7727835008512,64474.305404466,0.74924055847955,128989.21820005,0.0020861453955964,64477.078187967,9755.3867467582,1318.0133631207,423.15
9630.4064792327,2.50087676087,2.7663241741442,64474.318047253,0.74971444558377,128993.59775578,0.0020874294247182,64477.084371427,9732.6611246059,1318.8469932932,423.15
11556.487875079,2.5009702608618,2.7592343215725,64474.331969231,0.75025016167888,128998.42042458,0.0020888819706501,64477.091203552,9707.7171454624,1319.7893888485,423.15
13867.785550095,2.5010731354834,2.751455462222,64474.347287103,0.75085274151227,129003.72663069,0.002090516706817,64477.098742566,9680.349057983,1320.8494065741,423.15
16641.342760114,2.5011862432503,2.742923441921,64474.364128715,0.75152758618355,129009.56065579,0.0020923482912887,64477.107052157,9650.3311507996,1322.0365477195,423.15
19969.611412137,2.5013105246734,2.7335679216562,64474.382634124,0.75228070305406,129015.97101081,0.0020943930308566,64477.116202046,9617.4159526344,1323.3613800288,423.15
23963.533794564,2.5014470100828,2.7233118165125,64474.402956767,0.75311877377271,129023.01083951,0.0020966690660772,64477.126268583,9581.332258339,1324.8356574074,423.15
28756.240653477,2.5015968281155,2.7120706813193,64474.425264727,0.75404922741488,129030.73835626,0.0020991965700411,64477.137335408,9541.7829674374,1326.4724485825,423.15
34507.488884173,2.5017612149209,2.6997520389814,64474.449742104,0.7550803205166,129039.21732083,0.00210199796576,64477.149494143,9498.4427210157,1328.2862778944,423.15
41408.986761007,2.5019415241425,2.6862546472391,64474.476590509,0.75622122546838,129048.51755328,0.0021050981661648,64477.162845157,9450.9553219891,1330.2932807929,423.15
49690.784213209,2.5021392377413,2.6714676991929,64474.506030675,0.75748212882361,129058.71549219,0.0021085248409465,64477.177498374,9398.9309223378,1332.5113767742,423.15
59628.94115585,2.5023559777281,2.6552699525702,64474.538304211,0.7588743412009,129069.89479983,0.0021123087147979,64477.193574163,9341.9429596346,1334.9604627143,423.15
71554.72948702,2.502593518878,2.6375287824079,64474.573675504,0.76041042065082,129082.14701794,0.0021164839021322,64477.211204287,9279.524824133,1337.6626298874,423.15
85865.675484424,2.5028538024993,2.618099151574,64474.612433779,0.7621043116069,129095.57227794,0.002121088284018,64477.230532931,9211.1662367882,1340.6424083984,423.15
103038.81068131,2.503138951331,2.5968224933458,64474.654895327,0.76397150184961,129110.28006933,0.0021261639339072,64477.251717821,9136.3093178721,1343.9270433044,423.15
123646.57291757,2.5034512856397,2.573525500146,64474.701405923,0.76602920029261,129126.39006996,0.002131757599758,64477.274931424,9054.3443254266,1347.5468073635,423.15
148375.88760109,2.5037933405867,2.5480188127249,64474.752343432,0.76829653886232,129144.03304179,0.002137921251397,64477.300362244,8964.6050434575,1351.5353561677,423.15
178051.0652213,2.5041678849246,2.5200956065531,64474.80812062,0.77079480230122,129163.35179529,0.0021447127034767,64477.328216226,8866.3638084921,1355.9301323978,423.15
213661.27836556,2.5045779410766,2.4895300911487,64474.869188186,0.77354769040104,129184.50222507,0.002152196326206,64477.358718277,8758.8262298128,1360.7728271261,423.15
256393.53413868,2.5050268066351,2.4560760464371,64474.936038014,0.77658161798667,129207.65441881,0.0021604438582266,64477.392114061,8641.1260399838,1366.1099075275,423.15
307672.24106641,2.5055180772938,2.419465982433,64475.00920665,0.77992605895439,129232.99384007,0.0021695353386603,64477.428672632,8512.3221383901,1371.9932220888,423.15
369206.68937969,2.5060556711976,2.379412965229,64475.089279017,0.78361394185379,129260.72258419,0.0021795601785457,64477.468691982,8371.4050155498,1378.4806964894,423.15
443048.02735563,2.5066438546532,2.3356204603773,64475.176892358,0.78768210593443,129291.06070451,0.0021906183957427,64477.512512818,8217.3313847355,1385.6371358478,423.15
531657.63292676,2.5072872690883,2.2878105481876,64475.2727404,0.79217182831683,129324.24760285,0.0022028220420635,64477.560550948,8049.1234508685,1393.5351520854,423.15
637989.15961211,2.5079909590885,2.2357843578561,64475.377577727,0.79712943517139,129360.54347566,0.0022162968573831,64477.613362084,7866.0815337881,1402.2562390707,423.15
