time,atomic_fraction_H_enclosure_2_at_interface,concentration_H_encl_1_inventory,concentration_H_encl_2_inventory,concentration_H_enclosure_1_at_interface,concentration_H_enclosure_2_at_interface,concentration_ratio_H2,mass_conservation_sum_encl1_encl2,pressure_H2_enclosure_1,pressure_H2_enclosure_1_at_interface,temperature
0,0.050894166975895,0.0014211550873535,262.50880514081,0.014211550873535,2625.0880514081,0.00027737641864971,262.5102262959,25,25,423.15
0.001,0.050906665216698,0.0014157820775575,262.50918034964,0.01406537105079,2625.7327025449,0.00027448962693489,262.51059613171,24.905481642295,24.742850333426,423.15
0.0022,0.050923373128262,0.0014180588153769,262.50968464913,0.014067294718875,2626.5944857632,0.00027448212810299,262.51110270794,24.945532475587,24.746234320336,423.15
0.00364,0.050947245676032,0.0014209555984089,262.51041032012,0.014070043065079,2627.8258162601,0.00027447142636786,262.51183127571,24.996490725285,24.751069025268,423.15
0.005368,0.050981613062837,0.0014244280104598,262.51146348194,0.014073999169204,2629.5984637326,0.0002744560460452,262.51288790995,25.057575051721,24.758028336326,423.15
0.0074416,0.051030945356374,0.001428640291953,262.5129890702,0.014079676949331,2632.1429913673,0.00027443402226469,262.51441771049,25.131674661444,24.768016303468,423.15
0.00992992,0.051101352335172,0.0014337595658222,262.51518920413,0.014087778296355,2635.7745375691,0.00027440269933473,262.51662296369,25.221729468178,24.782267645732,423.15
0.012915904,0.051201169936605,0.0014399907088555,262.51834631629,0.014099259790715,2640.9230645696,0.0002743585115723,262.519786307,25.33134352594,24.802465114787,423.15
0.0164990848,0.051341680736172,0.0014475869282494,262.52285381818,0.014115414123786,2648.1705202793,0.00027429674302316,262.52430140511,25.464971084633,24.830882725952,423.15
0.02079890176,0.05153798949278,0.0014568608559358,262.52925699688,0.01413796805457,2658.2959983444,0.00027421128709076,262.53071385774,25.628111753954,24.870558076984,423.15
0.025958682112,0.051810060672697,0.0014681978014667,262.53830745147,0.014169196691901,2672.3292529583,0.00027409445275677,262.53977564927,25.827543639182,24.925493385609,423.15
0.0321504185344,0.052183908363444,0.0014820711972284,262.5510353346,0.014212051352938,2691.612073846,0.00027393689837327,262.5525174058,26.071595042951,25.000880409548,423.15
0.03958050224128,0.052692913733881,0.001499060260564,262.56884515649,0.014270295560053,2717.8662399996,0.00027372781365071,262.57034421675,26.370455165376,25.103339683053,423.15
0.048496602689536,0.053379240675229,0.0015198698731226,262.5936432911,0.014348641940174,2753.2665375218,0.00027345550455325,262.59516316097,26.736523808125,25.241161340973,423.15
0.059195923227443,0.054295343194441,0.0015453527993992,262.6280091625,0.014452883778677,2800.5185099962,0.00027310854380165,262.6295545153,27.184802227971,25.424536539484,423.15
0.072035107872932,0.055505630014959,0.0015765347639248,262.67542814811,0.014590021190923,2862.9443175121,0.00027267760574234,262.67700468288,27.733334277764,25.665779408518,423.15
0.087442129447518,0.05708848962281,0.0016146436734532,262.74061336854,0.014768395124049,2944.5871872263,0.00027215799339506,262.74222801222,28.403720463401,25.979562778668,423.15
0.10593055533702,0.059139077636103,0.0016611453657407,262.82995644897,0.014997861799868,3050.3551840697,0.00027155271020744,262.83161759434,29.221746812203,26.383225049346,423.15
0.12811666640443,0.061773480979752,0.0017177894155129,262.95216436102,0.015290060182662,3186.235996173,0.00027087581122822,262.95388215044,30.218190660525,26.897240700056,423.15
0.15473999968531,0.065135005647364,0.0017866692712317,263.11916055002,0.015658836311436,3359.6212535374,0.00027015581765051,263.12094721929,31.429878539134,27.545966747015,423.15
0.18668799962237,0.069403274156659,0.0018703010877741,263.34735386489,0.016120885847002,3579.7757688723,0.00026943933051377,263.34922416598,32.901072944421,28.358773068572,423.15
0.22502559954685,0.074806490866725,0.0019717259073156,263.65940917106,0.016696676751122,3858.4701746866,0.00026879579195956,263.66138089697,34.685269835459,29.371665520009,423.15
0.27103071945622,0.081636606473347,0.0020946435342628,264.0866882534,0.017411781675794,4210.763098101,0.00026832603228892,264.08878289694,36.84755367135,30.629629782733,423.15
0.32623686334746,0.090265975402844,0.0022436005827079,264.6725547492,0.01829902483598,4655.8603383947,0.00026818098058875,264.67479834978,39.467905414988,32.190407997723,423.15
0.39248423601695,0.10116145472845,0.0024242910057928,265.47669238031,0.019402555793528,5217.8420799476,0.00026860461830507,265.47911667132,42.646489242552,34.13166509093,423.15
0.47198108322034,0.11488605577128,0.0026440757419406,266.58033607799,0.020785918238804,5925.7480807466,0.00027002105041862,266.58298015373,46.512793808881,36.565182828694,423.15
0.56737729986441,0.13208686450009,0.0029124724746343,268.09243140062,0.022539055048527,6812.9546144526,0.00027306620606204,268.0953438731,51.234247770558,39.649182642162,423.15
0.6818527598373,0.15377042483078,0.0032361058908103,270.16990538424,0.024673954042264,7931.3785619954,0.00027705399184213,270.17314149013,56.927388143764,43.404752693481,423.15
0.81922331180476,0.18299431374852,0.003597335973978,273.11427965047,0.026693181696419,9438.7277568445,0.00027475373993602,273.11787698644,63.281903678034,46.956841540298,423.15
0.98406797416571,0.22494062855164,0.0039858833759684,277.45418115164,0.028217691167945,11602.291409285,0.00026196881243621,277.45816703502,70.116967026291,49.638655589118,423.15
1.1818815689988,0.28488435029746,0.0044220469959523,283.95383867418,0.029445285411546,14694.149613515,0.00024290896276868,283.95826072118,77.789662706467,51.798156431997,423.15
1.4192578827986,0.36845048813558,0.0049265971308926,293.69497903689,0.030541484956296,19004.436685216,0.00022154535479869,293.69990563402,86.665367747918,53.726516599204,423.15
1.7041094593583,0.48276281888591,0.0055184088734312,308.23143780606,0.031583958832518,24900.592402303,0.00020015282546782,308.23695621493,97.076120026206,55.560366200662,423.15
1.9809851917744,0.60702424182837,0.006081501900392,325.38023572266,0.032354282129251,31309.91582775,0.00018284825421985,325.38631722456,106.98167206573,56.915466892326,423.15
2.2578609241904,0.74426221203522,0.0066228381072923,345.60694264694,0.032689459577725,38388.561126339,0.0001668425518524,345.61356548505,116.50449282818,57.505088411217,423.15
2.5901118030897,0.9177250217793,0.0073318772436586,373.58179772462,0.034280457905435,47335.660102112,0.00015756233039649,373.58912960187,128.9774302063,60.303865163078,423.15
2.9888128577688,1.1401150665382,0.0081732451269599,412.44691962258,0.035999989048779,58806.394057248,0.00014845338125527,412.45509286771,143.7782054839,63.328748159039,423.15
3.4672541233838,1.4252659091673,0.0091974050529361,466.54712372166,0.038353832455093,73514.28917201,0.0001414564926036,466.55632112672,161.79453486079,67.469470426547,423.15
4.0413836421217,1.7691899605333,0.010616291237853,540.26643585239,0.044976400238763,91253.668190834,0.00014888794217365,540.27705214362,186.75462186226,79.119444174314,423.15
4.7303390646072,2.0086887000676,0.013712697960235,624.82160885349,0.08079873832782,103606.85750183,0.0002510211579681,624.83532155145,241.22451663194,142.13568076916,423.15
5.5570855715898,2.1583007553182,0.017518177865909,715.67095589678,0.12558063822757,111323.75006382,0.00037638193625428,715.68847407465,308.16794771026,220.91297308978,423.15
6.5491813799689,2.2498283264689,0.021928557755262,810.80401645833,0.17619513437879,116044.68269085,0.00051722712021957,810.82594501609,385.75237056108,309.95057461832,423.15
7.7396963500239,2.3127280054595,0.026961076042202,910.55518091008,0.23173379667769,119289.0072484,0.00067094846698335,910.58214198612,474.28103171361,407.65043650027,423.15
9.1683143140898,2.3607987764809,0.032796538817778,1016.009078609,0.29430904140652,121768.46637168,0.0008434050285301,1016.0418751478,576.93454974805,517.72857872005,423.15
10.882655870969,2.3999488336902,0.039645797183416,1128.3999627616,0.3663334058887,123787.800875,0.0010412082483711,1128.4396085587,697.42207476534,644.42897391813,423.15
12.939865739224,2.4330490493618,0.047744115953829,1248.9608893619,0.4503468229831,125495.0884842,0.0012712581165395,1249.0086334779,839.88222641379,792.21970035259,423.15
15.40851758113,2.461684399477,0.057362772961687,1378.9131364364,0.54917641652007,126972.08123016,0.0015411955975174,1378.9704992093,1009.087141019,966.07404323261,423.15
18.370899791417,2.486821867068,0.06882109267369,1519.4908477771,0.66609055718665,128268.65546915,0.0018598289589587,1519.5596688698,1210.6541588267,1171.7414994219,423.15
21.925758443762,2.509098457513,0.08249856457146,1671.9685054201,0.80493729255624,129417.66752452,0.002237511439944,1672.0510039847,1451.2590023706,1415.991294193,423.15
26.191588826575,2.5289607292837,0.098848154893227,1837.6848810774,0.97028585712099,130442.15059198,0.0026865240079306,1837.7837292323,1738.8699476372,1706.8613161141,423.15
31.310585285951,2.546738904564,0.11841172920911,2018.0636240167,1.1675854540939,131359.13731712,0.0032215029401974,2018.1820357459,2083.0191275891,2053.9374352664,423.15
37.453381037203,2.5626888494178,0.14183828716582,2214.6316834687,1.4033503466766,132181.82510522,0.0038599371583724,2214.7735217559,2495.1233054718,2468.6791032954,423.15
44.824735938705,2.5770169559834,0.16990569107373,2429.0366373637,1.685378905464,132920.8595286,0.0046227561327039,2429.2065430548,2988.8661094359,2964.8046868034,423.15
53.670361820507,2.5898953863851,0.20354664641493,2663.0637198874,2.0230145894089,133585.12059774,0.0055350299012288,2663.2672665339,3580.6550640785,3558.7505674278,423.15
64.285112878669,2.6014716502567,0.24387981799726,2918.6531160538,2.4274579138741,134182.21676367,0.0066268055585791,2918.8969958718,4290.1689648,4270.219934959,423.15
77.022814148464,2.6118747483468,0.29224712910692,3197.9179415327,2.9121400076549,134718.80180114,0.0079341086798761,3198.2101886618,5141.0140192923,5122.839923611,423.15
92.308055672218,2.6212191907965,0.35025849312646,3503.163225401,3.4931703341056,135200.78206881,0.0095001434118864,3503.5134838941,6161.510735938,6144.9492127751,423.15
110.65034550072,2.6296076826408,0.41984547274183,3836.9060814617,4.1898735818016,135633.45502562,0.011376731463049,3837.3259269345,7385.637860321,7370.5424887935,423.15
132.66109329493,2.6371329667086,0.50332565911825,4201.896702129,5.0254336958841,136021.6042864,0.013626038165329,4202.4000277881,8854.1648901871,8840.4033813836,423.15
159.07399064798,2.6438791329542,0.60347992323334,4601.137216961,6.0276666421178,136369.56715634,0.016322643478041,4601.7406968842,10616.011028697,10603.46385795,423.15
189.07399064798,2.6496410605049,0.71721745654391,5015.3756344462,7.1656404648249,136666.76363415,0.019383114383896,5016.0928519027,12616.804860466,12605.310512185,423.15
219.07399064798,2.6540939204319,0.83094196227061,5396.8989747444,8.3033537358831,136896.43925483,0.022441788438871,5397.7299167067,14617.369519783,14606.698821565,423.15
249.07399064798,2.6576591867757,0.94465772661764,5752.2221079893,9.4408921793649,137080.33337542,0.02549913579552,5753.1667657159,16617.780406655,16607.779586086,423.15
279.07399064798,2.6605913067572,1.0583674347001,6085.9509839853,10.578309497566,137231.57021819,0.028555466077727,6087.00935142,18618.084755814,18608.647275199,423.15
309.07399064798,2.6630538757337,1.1720728059914,6401.3639348995,11.71564007995,137358.58792532,0.031610991088697,6402.5360077055,20618.312815072,20609.362384522,423.15
339.07399064798,2.6651573338703,1.2857749826202,6700.8376144269,12.85290676909,137467.08292876,0.034665861601849,6702.1233894095,22618.484675987,22609.965097168,423.15
369.07399064798,2.6669791974084,1.399474746705,6986.1337239084,13.990125207352,137561.05346585,0.037720188534715,6987.5331986551,24618.614097057,24610.482930129,423.15
399.07399064798,2.6685756333307,1.513172644618,7258.5893598874,15.127306322182,137643.39659304,0.040774055596321,7260.1025325321,26618.710689695,26610.935106231,423.15
429.07399064798,2.6699884330907,1.6268690624053,7519.2449102571,16.264457834498,137716.26788634,0.043827527258286,7520.8717793195,28618.781244961,28611.335207592,423.15
459.07399064798,2.6712493979185,1.7405642747642,7768.9314430337,17.401585238248,137781.30763253,0.046880654051599,7770.6720073085,30618.830595146,30611.692898791,423.15
489.07399064798,2.6723831974875,1.8542584784931,8008.3311470414,18.538692469399,137839.78827733,0.049933476231526,8010.1854055199,32618.862202193,32612.015103718,423.15
519.07399064798,2.6734092915322,1.9679518159166,8238.0193743758,19.675782374441,137892.71354119,0.052986026378919,8239.9873261918,34618.878569779,34612.306829725,423.15
549.07399064798,2.6743432563179,2.0816443913848,8458.4939186315,20.81285704038,137940.88683776,0.056038331273567,8460.5755630228,36618.881533565,36612.57174813,423.15
579.07399064798,2.6751977217566,2.1953362828432,8670.1953885168,21.949918026122,137984.95960969,0.05909041325526,8672.3907247996,38618.872464712,38612.812601259,423.15
609.07399064798,2.6759830471126,2.3090275498817,8873.5213780171,23.086966523465,138025.46618109,0.062142291219879,8875.8304055669,40618.852411484,40613.031485638,423.15
639.07399064798,2.676707817134,2.422718239295,9068.8363337315,24.224003468307,138062.84934769,0.065193981354278,9071.2590519708,42618.822197067,42613.23004764,423.15
669.07399064798,2.6773792122883,2.5364083889062,9256.4784514676,25.361029617105,138097.47947334,0.06824549768374,9259.0148598565,44618.782486814,44613.409617969,423.15
699.07399064798,2.6780032891063,2.650098030187,9436.7645288234,26.498045599296,138129.66894996,0.071296852484388,9439.4146268536,46618.733834357,46613.571303892,423.15
729.07399064798,2.6785851952787,2.7637871900561,9609.9934138231,27.635051953254,138159.6832921,0.074348056597755,9612.7572010131,48618.676713231,48613.716052477,423.15
759.07399064798,2.6791293366805,2.8774758921134,9776.4484892397,28.772049150975,138187.74975191,0.077399119673856,9779.3259651318,50618.611538589,50613.844694028,423.15
789.07399064798,2.6796395084944,2.9911641574903,9936.3994935444,29.909037615088,138214.06408246,0.08045005036147,9939.3906577019,52618.538682159,52613.957972007,423.15
819.07399064798,2.6801189991864,3.1048520054381,10090.103884149,31.046017730619,138238.79590069,0.083500856459051,10093.208736154,54618.458482599,54614.056563724,423.15
849.07399064798,2.6805706737195,3.2185394537371,10237.80788346,32.182989853176,138262.09297951,0.086551545035896,10241.026422913,56618.37125269,56614.141094742,423.15
879.07399064798,2.6809970407198,3.3322265189839,10379.747303812,33.319954314688,138284.08471225,0.089602122530597,10383.079530331,58618.277284383,58614.212148966,423.15
909.07399064798,2.6814003071194,3.4459132167938,10516.148217033,34.456911427461,138304.88493102,0.092652594831937,10519.594130249,60618.176852374,60614.270275785,423.15
939.07399064798,2.6817824229376,3.5595995619463,10647.22751371,35.593861487086,138324.59421655,0.095702967346036,10650.787113272,62618.070216655,62614.315995184,423.15
969.07399064798,2.6821451182314,3.673285568491,10773.193383123,36.730804774557,138343.30180405,0.098753245052646,10776.866668692,64617.957624377,64614.349801467,423.15
999.07399064798,2.682489933779,3.7869712498262,10894.245735145,37.867741557836,138361.08716586,0.10180343255274,10898.032706394,66617.839311232,66614.372166014,423.15
1029.073990648,2.6828182467114,3.9006566187578,11010.576578848,39.004672093044,138378.02133351,0.1048535341091,11014.477235467,68617.715502494,68614.383539378,423.15
1059.073990648,2.6831312920442,4.0143416875462,11122.370368022,40.141596625389,138394.1680083,0.10790355368111,11126.38470971,70617.586413841,70614.384352909,423.15
1089.073990648,2.68343018086,4.1280264679432,11229.804320716,41.278515389905,138409.58449914,0.11095349495493,11233.932347184,72617.452252,72614.375020066,423.15
1119.073990648,2.6837159157386,4.2417109712224,11333.048717818,42.415428612066,138424.32251845,0.11400336136963,11337.29042879,74617.313215291,74614.355937487,423.15
1149.073990648,2.6839894039124,4.3553952082054,11432.267184224,43.552336508302,138438.42886069,0.11705315614012,11436.622579432,76617.169494079,76614.327485901,423.15
1179.073990648,2.6842514685329,4.4690791892841,11527.616955125,44.689239286452,138451.94598347,0.12010288227727,11532.086034314,78617.021271171,78614.290030924,423.15
1209.073990648,2.684502858358,4.5827629244407,11619.249129291,45.82613714616,138464.91250725,0.12315254260566,11623.831892215,80616.868722168,80614.243923756,423.15
1239.073990648,2.6847442561163,4.696446423266,11707.308910727,46.963030279242,138477.36364671,0.12620213977936,11712.00535715,82616.712015784,82614.189501826,423.15
1269.073990648,2.6849762857542,4.8101296949758,11791.935839739,48.099918870015,138489.33158462,0.12925167629592,11796.745969433,84616.551314138,84614.127089373,423.15
1299.073990648,2.6851995187394,4.9238127484267,11873.264014249,49.23680309561,138500.84579689,0.13230115450894,11878.187826998,86616.386773029,86614.056997995,423.15
1329.073990648,2.6854144795606,5.0374955921305,11951.422302003,50.373683126263,138511.93333632,0.13535057663925,11956.459797595,88616.218542191,88613.979527157,423.15
1359.073990648,2.6856216505418,5.1511782342679,12026.534544208,51.510559125587,138522.61908088,0.13839994478501,12031.685722442,90616.046765531,90613.894964678,423.15
1389.073990648,2.685821476071,5.2648606827015,12098.719751082,52.647431250836,138532.92595178,0.14144926093087,12103.984611765,92615.871581367,92613.803587188,423.15
1419.073990648,2.6860143663226,5.3785429449886,12168.092289684,53.784299653154,138542.87510558,0.14449852695611,12173.470832629,94615.693122639,94613.70566057,423.15
1449.073990648,2.6862007005464,5.4922250283926,12234.762064405,54.921164477812,138552.48610373,0.14754774464218,12240.254289433,96615.51151712,96613.601440373,423.15
1479.073990648,2.6863808299793,5.6059069398949,12298.834690427,56.058025864434,138561.77706279,0.15059691567943,12304.440597367,98615.326887623,98613.491172217,423.15
1509.073990648,2.6865550804306,5.7195886862054,12360.411660456,57.19488394722,138570.76478781,0.15364604167332,12366.131249142,100615.13935218,100613.37509218,423.15
1539.073990648,2.6867237545828,5.8332702737731,12419.590504989,58.331738855153,138579.46489094,0.15669512415006,12425.423775263,102614.94902425,102613.25342715,423.15
1569.073990648,2.6868871340442,5.9469517087966,12476.464946393,59.468590712198,138587.89189736,0.15974416456172,12482.411898102,104614.75601286,104613.1263952,423.15
1599.073990648,2.6870454811845,6.0606329972329,12531.125047023,60.605439637502,138596.05933993,0.16279316429103,12537.18568002,106614.5604228,106612.99420594,423.15
1629.073990648,2.6871990407791,6.1743141448077,12583.657351623,61.742285745575,138603.97984401,0.16584212465569,12589.831665767,108614.36235481,108612.85706079,423.15
1659.073990648,2.687348041486,6.2879951570236,12634.145024219,62.879129146469,138611.66520362,0.16889104691237,12640.433019376,110614.16190567,110612.71515335,423.15
1689.073990648,2.6874926971748,6.401676039169,12682.667979735,64.015969945954,138619.12645002,0.17193993226038,12689.069655774,112613.95916842,112612.5686697,423.15
1719.073990648,2.6876332081243,6.5153567963264,12729.30301051,65.152808245679,138626.37391347,0.1749887818451,12735.818367307,114613.75423247,114612.41778863,423.15
1749.073990648,2.6877697621047,6.6290374333804,12774.123907932,66.289644143336,138633.41727902,0.17803759676114,12780.752945366,116613.54718374,116612.26268201,423.15
1779.073990648,2.6879025353568,6.7427179550251,12817.201579365,67.426477732807,138640.26563706,0.18108637805518,12823.94429732,118613.33810481,118612.10351498,423.15
1809.073990648,2.6880316934792,6.8563983657718,12858.604160549,68.563309104319,138646.92752905,0.18413512672878,12865.460558915,120613.12707503,120611.94044627,423.15
