time,atomic_fraction_H_enclosure_2_at_interface,concentration_H_encl_1_inventory,concentration_H_encl_2_inventory,concentration_H_enclosure_1_at_interface,concentration_H_enclosure_2_at_interface,concentration_ratio_H2,mass_conservation_sum_encl1_encl2,pressure_H2_enclosure_1,pressure_H2_enclosure_1_at_interface,temperature
0,2,8.3300719180002,51579.35,16.660143836,103158.7,0.051871142805562,51587.680071918,30000,30000,433.15
0.0001,2.0000000150167,8.3291173631348,51579.350002236,16.659369283256,103158.70077455,0.051868731050863,51587.679119599,29996.562257056,29998.6052592,433.15
0.00022,2.0000000330367,8.3296317648848,51579.350004919,16.658439825664,103158.70170401,0.051865836963003,51587.679636684,29998.414828396,29996.931580507,433.15
0.000364,2.0000000546604,8.3298002528091,51579.350008139,16.65732448718,103158.70281935,0.051862364090695,51587.679808392,29999.021622405,29994.923185212,433.15
0.0005368,2.0000000806086,8.3298810623869,51579.350012002,16.655986097327,103158.70415774,0.051858196694809,51587.679893065,29999.312650784,29992.513140256,433.15
0.00074416,2.0000001117459,8.3299261965948,51579.350016639,16.654380053447,103158.70576378,0.051853195894377,51587.679942835,29999.475197549,29989.621129427,433.15
0.000992992,2.0000001491101,8.3299529472389,51579.350022202,16.65245283546,103158.707691,0.051847195041909,51587.679975149,29999.571537572,29986.15077886,433.15
0.0012915904,2.0000001939461,8.3299686256212,51579.350028878,16.650140223882,103158.71000361,0.051839994174803,51587.679997504,29999.628001847,29981.986448225,433.15
0.00164990848,2.0000002477479,8.3299767658285,51579.350036889,16.647365162041,103158.71277867,0.051831353358844,51587.680013655,29999.657318066,29976.989381212,433.15
0.002079890176,2.000000312308,8.3299791921793,51579.350046502,16.644035191623,103158.71610865,0.051820984703175,51587.680025694,29999.666056349,29970.99308769,433.15
0.0025958682112,2.0000003897773,8.3299768416399,51579.350058037,16.640039376619,103158.72010446,0.051808542782311,51587.680034878,29999.657591094,29963.797804666,433.15
0.00321504185344,2.0000004827363,8.3299701314889,51579.350071878,16.63524461395,103158.72489923,0.051793613148411,51587.680042009,29999.633425093,29955.163852794,433.15
0.003958050224128,2.0000005942811,8.3299591358878,51579.350088487,16.629491208933,103158.73065263,0.051775698554485,51587.680047622,29999.593825431,29944.8036691,433.15
0.0048496602689536,2.0000007281262,8.3299436726129,51579.350108416,16.622587569755,103158.73755627,0.051754202434438,51587.680052088,29999.538135846,29932.372253298,433.15
0.0059195923227443,2.0000008887278,8.3299233430641,51579.350132329,16.614303846492,103158.74584,0.051728409096753,51587.680055672,29999.464920816,29917.45571354,433.15
0.0072035107872932,2.0000010814317,8.3298975453219,51579.350161022,16.604364306095,103158.75577955,0.051697459982316,51587.680058567,29999.372012583,29899.55753602,433.15
0.0087442129447518,2.0000013126506,8.3298654697221,51579.350195449,16.592438194143,103158.76770567,0.05166032521051,51587.680060919,29999.256495213,29878.08212968,433.15
0.010593055533702,2.000001590076,8.3298260814877,51579.350236757,16.578128785944,103158.78201508,0.051615769487512,51587.680062839,29999.114642053,29852.315110487,433.15
0.012811666640443,2.0000019229326,8.3297780923939,51579.350286318,16.560960272433,103158.79918361,0.051562311272824,51587.680064411,29998.941813675,29821.399686803,433.15
0.015473999968531,2.0000023222831,8.3297199219813,51579.35034578,16.540362058775,103158.81978185,0.051498173889835,51587.680065702,29998.732318199,29784.308385802,433.15
0.018668799962237,2.0000028013918,8.3296496479136,51579.350417118,16.515649974101,103158.84449397,0.051421227018743,51587.680066766,29998.479232506,29739.809217757,433.15
0.022502559954685,2.0000033761611,8.3295649444052,51579.3505027,16.48600379769,103158.87414019,0.051328916720206,51587.680067644,29998.174180487,29686.425207326,433.15
0.027103071945622,2.0000040656515,8.3294630070997,51579.350605363,16.450440398418,103158.90970366,0.05121818180044,51587.68006837,29997.807062509,29622.386025631,433.15
0.032623686334746,2.0000048927042,8.3293404622745,51579.350728508,16.40778165904,103158.9523625,0.051085353938422,51587.68006897,29997.365728413,29545.570231366,433.15
0.039248423601695,2.0000058846824,8.3291932577447,51579.35087621,16.356616213683,103159.00352809,0.050926038550188,51587.680069468,29996.835584623,29453.436371309,433.15
0.047198108322034,2.0000070743553,8.3290165323184,51579.351053349,16.295253865808,103159.06489065,0.050734972863674,51587.680069881,29996.199123997,29342.940900539,433.15
0.056737729986441,2.0000085009493,8.3288044601034,51579.351265764,16.221671376506,103159.13847344,0.050505857125349,51587.680070224,29995.435365111,29210.440563159,433.15
0.06818527598373,2.0000102113952,8.3285500653983,51579.351520444,16.133448124119,103159.22669713,0.050231154272154,51587.680070509,29994.519185608,29051.576534273,433.15
0.081922331180476,2.000012261805,8.328245003332,51579.351825743,16.027689945986,103159.33245593,0.049901852810444,51587.680070747,29993.420532189,28861.137281453,433.15
0.098406797416571,2.0000147192138,8.3278793009097,51579.352191643,15.900939300734,103159.45920748,0.049507187107467,51587.680070944,29992.103488018,28632.896793557,433.15
0.11818815689988,2.0000176636252,8.3274410527626,51579.352630057,15.74906976925,103159.61107831,0.049034308927278,51587.68007111,29990.525176985,28359.424608121,433.15
0.14192578827986,2.0000211903997,8.3269160658733,51579.353155182,15.567162904167,103159.79298704,0.048467904018213,51587.680071248,29988.634484223,28031.864053649,433.15
0.17041094593583,2.0000254130189,8.3262874481374,51579.353783916,15.349365644697,103160.010787,0.047789748205306,51587.680071365,29986.370574348,27639.67549583,433.15
0.204593135123,2.0000304662506,8.3255351373544,51579.354536326,15.088727114625,103160.2714294,0.046978199314361,51587.680071464,29983.66119516,27170.342458905,433.15
0.2456117621476,2.000036509711,8.3246353710044,51579.355436178,14.777014927108,103160.58314716,0.046007625323385,51587.680071549,29980.420768094,26609.040844852,433.15
0.29483411457712,2.0000437317729,8.3235601045573,51579.356511519,14.404513680576,103160.95565642,0.044847777113916,51587.680071624,29976.548293315,25938.276083997,433.15
0.35390093749255,2.0000523536739,8.3222763999341,51579.357795293,13.959813139091,103161.40036847,0.043463129173249,51587.680071693,29971.925147312,25137.501710386,433.15
0.42478112499105,2.0000626323275,8.3207460072655,51579.359325751,13.42966340129,103161.93053474,0.041812428969688,51587.680071758,29966.413576642,24182.858563807,433.15
0.50983734998927,2.0000748655845,8.3189245816681,51579.361147243,12.798703673762,103162.56151819,0.039847852897742,51587.680071825,29959.853877223,23046.686390736,433.15
0.61190481998712,2.0000893918642,8.3167617386574,51579.363310159,12.049481605127,103163.31077425,0.03751506708219,51587.680071898,29952.064593894,21697.558659289,433.15
0.73438578398454,2.0001065863875,8.314201615484,51579.365870368,11.162647942353,103164.19765659,0.034753834236261,51587.680071983,29942.844542019,20100.633077786,433.15
0.88136294078145,2.0001268472095,8.3111849514718,51579.368887139,10.117677468148,103165.24269662,0.031500259296882,51587.68007209,29931.980299639,18218.949790131,433.15
1.0577355289377,2.0001505596209,8.3076543894918,51579.37241784,8.8947058756344,103166.46576738,0.027692509618481,51587.680072229,29919.265300243,16016.739044739,433.15
1.2693826347253,2.000178012529,8.3035669275409,51579.376505489,7.4788436226019,103167.88177054,0.023284246892762,51587.680072416,29904.544676012,13467.189172355,433.15
1.5233591616703,2.0002091996712,8.2989235187953,51579.381149153,5.8704302571905,103169.49038306,0.018276553000533,51587.680072672,29887.821859722,10570.911598924,433.15
1.8281309940044,2.0002433132775,8.2938444643487,51579.386228558,4.1111516290394,103171.2499407,0.012799239003008,51587.680073023,29869.530104873,7402.9702315458,433.15
2.1938571928053,2.0002773419704,8.2887781800876,51579.391295321,2.3563581944114,103173.00511856,0.0073359821991352,51587.680073501,29851.284340691,4243.1053734115,433.15
2.6327286313664,2.0003031158907,8.2849411589159,51579.395132974,1.027468151462,103174.33452061,0.0031987664382816,51587.680074133,29837.465656257,1850.1667721052,433.15
3.1593743576396,2.0003128019533,8.283499733804,51579.396575197,0.52851658649912,103174.83412143,0.0016454009045254,51587.680074931,29832.274494189,951.70232328439,433.15
3.7913492291676,2.0003134565569,8.2834032403759,51579.396672665,0.4955474726641,103174.86788546,0.0015427597679422,51587.680075906,29831.926981842,892.33468367775,433.15
4.5497190750011,2.00031264167,8.2835257485812,51579.396551331,0.53853773419248,103174.82585412,0.0016765992460759,51587.68007708,29832.368184055,969.74745145136,433.15
5.4597628900013,2.0003123315233,8.283573337504,51579.396505152,0.55568692833455,103174.80985695,0.0017299890020219,51587.680078489,29832.539571253,1000.6280866563,433.15
6.5518154680015,2.0003123381144,8.2835740462991,51579.396506133,0.55672987514243,103174.81019692,0.0017332359470705,51587.680080179,29832.542123914,1002.5061259184,433.15
7.8622785616018,2.0003123906222,8.2835682555326,51579.396513951,0.5556813022141,103174.81290524,0.0017299714609802,51587.680082207,29832.521268993,1000.6179556746,433.15
9.4348342739222,2.0003124347513,8.283564117045,51579.396520522,0.55539693316219,103174.81518139,0.0017290861316725,51587.680084639,29832.506364604,1000.1058909744,433.15
11.321901128707,2.0003124809373,8.2835601579632,51579.396527399,0.5554048005931,103174.81756364,0.001729110604942,51587.680087557,29832.492106329,1000.1200578946,433.15
13.586381354448,2.0003125362577,8.2835554216691,51579.396535636,0.55541945198362,103174.82041702,0.0017291561943835,51587.680091058,29832.475048995,1000.146440723,433.15
16.303757625338,2.0003126029459,8.2835496922064,51579.396545566,0.55542120318823,103174.82385676,0.0017291616174863,51587.680095258,29832.454414854,1000.1495941254,433.15
19.564609150405,2.0003126830086,8.2835428106728,51579.396557487,0.55542115485284,103174.82798634,0.0017291614324015,51587.680100298,29832.429631633,1000.1495070876,433.15
23.477630980486,2.000312779071,8.2835345540453,51579.396571791,0.55542140987616,103174.83294117,0.0017291621848309,51587.680106345,29832.399896137,1000.1499663094,433.15
28.173257176583,2.0003128943341,8.2835246470139,51579.396588953,0.55542180418348,103174.83888637,0.0017291633625863,51587.6801136,29832.36421686,1000.1506763404,433.15
33.8080086119,2.0003130326355,8.2835127597162,51579.396609546,0.55542227627407,103174.84601987,0.0017291647725422,51587.680122306,29832.321405833,1000.1515264362,433.15
40.56971033428,2.0003131985765,8.2834984967517,51579.396634254,0.55542284088383,103174.854579,0.0017291664585861,51587.680132751,29832.270039058,1000.1525431316,433.15
48.683752401136,2.0003133976759,8.2834813839089,51579.3966639,0.55542351824229,103174.86484841,0.0017291684813122,51587.680145284,29832.208408703,1000.1537628542,433.15
58.420602881363,2.0003136365523,8.283460852511,51579.396699468,0.55542433095581,103174.8771695,0.0017291709082387,51587.680160321,29832.134466732,1000.1552263113,433.15
70.104823457636,2.0003139231422,8.2834362206978,51579.396742141,0.55542530601355,103174.89195162,0.0017291738199588,51587.680178361,29832.045757486,1000.1569821024,433.15
84.125888149163,2.0003142669612,8.2834066710352,51579.396793335,0.55542647579453,103174.90968559,0.0017291773131634,51587.680200006,29831.939337051,1000.1590885326,433.15
100.951165779,2.0003146794161,8.2833712237518,51579.396854749,0.55542787911704,103174.93095974,0.0017291815037723,51587.680225972,29831.811676869,1000.1616155021,433.15
121.14149893479,2.000315174178,8.2833287047775,51579.396928418,0.55542956250738,103174.95647924,0.0017291865307239,51587.680257123,29831.658548632,1000.164646791,433.15
145.36989872175,2.0003157676275,8.2832777076093,51579.397016781,0.55543158171732,103174.98708898,0.001729192560506,51587.680294489,29831.474886946,1000.168282792,433.15
174.4439784661,2.000316479386,8.2832165478663,51579.397122761,0.55543400353438,103175.02380102,0.0017291997925624,51587.680339309,29831.254625668,1000.1726437694,433.15
209.33287415933,2.0003173329484,8.2831432092087,51579.397249855,0.55543690793885,103175.06782721,0.0017292084657345,51587.680393064,29830.990503131,1000.1778737443,433.15
251.19954899119,2.0003183564358,8.283055279089,51579.39740225,0.55544039067065,103175.12061803,0.0017292188659267,51587.680457529,29830.673830764,1000.184145116,433.15
301.43955878943,2.0003195834887,8.2829498725797,51579.397584956,0.55544456627835,103175.18390862,0.0017292313352127,51587.680534829,29830.294218762,1000.1916641526,433.15
361.72757054731,2.0003210543258,8.2828235422901,51579.397803961,0.55544957173357,103175.25977344,0.0017292462826297,51587.680627503,29829.839251659,1000.2006774995,433.15
434.07318465678,2.0003228169946,8.2826721721527,51579.398066419,0.55545557070503,103175.35069075,0.0017292641969434,51587.680738591,29829.29410581,1000.2114798759,433.15
520.88792158813,2.0003249288445,8.282490852649,51579.39838087,0.55546275859706,103175.45961859,0.0017292856616963,51587.680871723,29828.64110003,1000.2244231471,433.15
625.06560590576,2.0003274582549,8.2822737348866,51579.398757495,0.55547136846787,103175.59008394,0.001729311372884,51587.68103123,29827.859170062,1000.2399269823,433.15
750.07882708691,2.0003304866537,8.2820138608744,51579.399208418,0.55548167794993,103175.74628678,0.0017293421596263,51587.681222279,29826.92325733,1000.2584913156,433.15
900.09469250429,2.0003341108599,8.2817029674396,51579.399748056,0.55549401729842,103175.93322098,0.0017293790082079,51587.681451023,29825.803602766,1000.2807108389,433.15
1080.1137310052,2.0003384457845,8.2813312615709,51579.400393519,0.5555087786894,103176.15681357,0.0017294230898542,51587.68172478,29824.464937725,1000.3072917456,433.15
1296.1365772062,2.0003436275174,8.2808871656835,51579.40116507,0.55552642687395,103176.42408399,0.0017294757925605,51587.682052236,29822.865566585,1000.3390709152,433.15
1555.3639926474,2.0003498168158,8.2803570325297,51579.402086646,0.55554751126306,103176.74332398,0.001729538757199,51587.682443679,29820.956340018,1000.3770376747,433.15
1866.4368911769,2.0003572029953,8.2797248314119,51579.403186437,0.5555726794628,103177.12429832,0.0017296139179638,51587.682911268,29818.679524917,1000.4223581713,433.15
2239.7243694123,2.0003660081935,8.2789718102132,51579.404497517,0.55560269219421,103177.57846472,0.0017297035469606,51587.683469327,29815.967587231,1000.476402239,433.15
2687.6693432947,2.0003764919404,8.2780761417409,51579.406058531,0.55563843940725,103178.11920957,0.0017298103023765,51587.684134673,29812.741918301,1000.540772415,433.15
3225.2033119537,2.0003889559143,8.2770125681581,51579.407914399,0.55568095722747,103178.76209324,0.0017299372791525,51587.684926967,29808.911554314,1000.6173344555,433.15
3870.2440743444,2.0004037486951,8.2757520638466,51579.410117024,0.55573144515277,103179.52509526,0.0017300880604258,51587.685869087,29804.371962133,1000.708248302,433.15
4644.2929892133,2.0004212702456,8.2742615446377,51579.412725961,0.55579128265099,103180.42884544,0.0017302667672093,51587.686987505,29799.00399212,1000.8159979688,433.15
5573.151687056,2.0004419757653,8.2725036591335,51579.415808989,0.55586204401686,103181.49682269,0.0017304781029068,51587.688312648,29792.673126595,1000.9434182958,433.15
6687.7821244672,2.0004663784814,8.2704367042632,51579.41944253,0.5559455100721,103182.75549892,0.0017307273884359,51587.689879234,29785.229175724,1001.0937160172,433.15
8025.3386493606,2.0004950508961,8.2680147096245,51579.42371183,0.55604367511305,103184.23440344,0.0017310205831968,51587.691726539,29776.506581264,1001.2704822719,433.15
9630.4064792327,2.0005286240333,8.2651877297833,51579.42871085,0.55615874754125,103185.96608403,0.0017313642872082,51587.69389858,29766.325469256,1001.477693739,433.15
11556.487875079,2.0005677843651,8.2619023660015,51579.434541812,0.55629316552872,103187.98594849,0.001731765791012,51587.696444178,29754.493528976,1001.7197408464,433.15
13867.785550095,2.0006132684016,8.2581025038953,51579.441314387,0.55644950026031,103190.33198553,0.0017322327765715,51587.699416891,29740.808669553,1002.0012535388,433.15
16641.342760114,2.0006658554081,8.2537302017603,51579.449144615,0.55663054857016,103193.04438915,0.0017327736085323,51587.702874817,29725.062219181,1002.3272680888,433.15
19969.611412137,2.0007263593705,8.248726594992,51579.458153712,0.55683923815614,103196.1651442,0.0017333970423085,51587.706880307,29707.042182316,1002.7030564158,433.15
23963.533794564,2.0007956220009,8.2430326165319,51579.468467025,0.55707862228913,103199.73766565,0.0017341122102792,51587.711499641,29686.535834294,1003.1341165591,433.15
28756.240653477,2.0008745090723,8.236589290441,51579.480213491,0.55735186786232,103203.80660952,0.0017349285857613,51587.716802781,29663.330778608,1003.6261511584,433.15
34507.488884173,2.0009639123456,8.2293373730064,51579.493525925,0.55766226089784,103208.41797225,0.0017358559988462,51587.722863298,29637.213654388,1004.1850773692,433.15
41408.986761007,2.0010647585574,8.2212162176053,51579.508542362,0.55801323498978,103213.6195543,0.001736904720498,51587.72975858,29607.966048313,1004.8170780807,433.15
49690.784213209,2.0011780253474,8.2121619232435,51579.525408433,0.55840842341581,103219.4617817,0.0017380856172086,51587.737570356,29575.357826737,1005.5286957532,433.15
59628.94115585,2.0013047620516,8.2021050404715,51579.544280463,0.55885172952628,103225.99877853,0.0017394103602859,51587.746385503,29539.138873751,1006.3269591683,433.15
71554.72948702,2.0014461118201,8.1909682566855,51579.565328773,0.55934740508759,103233.28950771,0.0017408916591263,51587.75629703,29499.030755014,1007.2195245018,433.15
85865.675484424,2.0016033314209,8.1786644713105,51579.588740641,0.55990012535691,103241.39879252,0.0017425434850722,51587.767405112,29454.719785687,1008.2148105115,433.15
103038.81068131,2.0017778066447,8.165095477721,51579.614722601,0.56051505390832,103250.39811116,0.0017443812649949,51587.779818079,29405.852283498,1009.3221152697,433.15
123646.57291757,2.001971063677,8.1501511843817,51579.643502157,0.56119789760492,103260.36618327,0.0017464220456308,51587.793653342,29352.031763748,1010.5517151519,433.15
148375.88760109,2.0021847787395,8.1337090933968,51579.675329239,0.56195495836306,103271.38946728,0.0017486846483062,51587.809038332,29292.817061354,1011.9149580487,433.15
178051.0652213,2.0024207886729,8.1156337233015,51579.710477801,0.56279319008175,103283.56270623,0.001751189838878,51587.826111524,29227.720252084,1013.424365879,433.15
213661.27836556,2.0026811040707,8.0957757905919,51579.749247821,0.56372026642964,103296.98960525,0.0017539605298065,51587.845023612,29156.203704909,1015.0937566545,433.15
256393.53413868,2.0029679251872,8.0739711238525,51579.791967711,0.56474466123271,103311.783652,0.0017570220195634,51587.865938835,29077.676171339,1016.9383892335,433.15
307672.24106641,2.0032836600912,8.0500393668983,51579.838997084,0.56587574099726,103328.06905313,0.0017604022680092,51587.889036451,28991.488114898,1018.9751299286,433.15
369206.68937969,2.0036309445593,8.0237825223983,51579.890729802,0.5671238691958,103345.98176025,0.0017641322066224,51587.914512324,28896.926466121,1021.2226402938,433.15
443048.02735563,2.0040126635175,7.9949833501885,51579.947597273,0.56850052302744,103365.670576,0.0017682460856674,51587.942580624,28793.20885422,1023.7015873758,433.15
531657.63292676,2.0044319740511,7.9634036100992,51580.010072027,0.57001842423076,103387.29834077,0.0017727818629435,51587.973475637,28679.47727879,1026.4348792698,433.15
637989.15961211,2.0048923300378,7.9287821335568,51580.078671566,0.57169168595095,103411.04320334,0.001777781640009,51588.007453699,28554.791164853,1029.4479295832,433.15
