time,atomic_fraction_H_enclosure_2_at_interface,concentration_H_encl_1_inventory,concentration_H_encl_2_inventory,concentration_H_enclosure_1_at_interface,concentration_H_enclosure_2_at_interface,concentration_ratio_H2,mass_conservation_sum_encl1_encl2,pressure_H2_enclosure_1,pressure_H2_enclosure_1_at_interface,temperature
0,1.85,0.018556253188726,27172.43,0.037112506377452,54344.86,0.0001591992612457,27172.448556253,100,100,648.15
0.001,1.8499985552583,0.018796927372151,27172.429754972,0.07950808873924,54344.817559847,0.00034106114537366,27172.448551899,101.29699773428,214.23529828626,648.15
0.0022,1.8499973895565,0.01899673371893,27172.429557268,0.11366991903798,54344.783316655,0.00048760328176099,27172.448554002,102.37375792259,306.28467364047,648.15
0.00364,1.8499965902591,0.019132735303129,27172.429421708,0.13701747588196,54344.759836814,0.00058775607387483,27172.448554443,103.10667303652,369.19488672747,648.15
0.005368,1.8499961076649,0.019214496165096,27172.42933986,0.15100416550157,54344.74566032,0.00064775406537663,27172.448554356,103.5472838707,406.88215440312,648.15
0.0074416,1.8499958586529,0.019256337276096,27172.429297627,0.1580682443107,54344.738345443,0.00067805649208405,27172.448553964,103.7727664106,425.91638167217,648.15
0.00992992,1.8499957535383,0.019273538289426,27172.4292798,0.16084077477716,54344.735257641,0.00068994968030026,27172.448553338,103.86546299733,433.38699127819,648.15
0.012915904,1.8499957220286,0.019278040626888,27172.429274456,0.16138110590595,54344.734332024,0.00069226751443349,27172.448552496,103.88972617921,434.84291862325,648.15
0.0164990848,1.8499957159292,0.019278012723705,27172.429273421,0.16109597339502,54344.73415285,0.00069104439856951,27172.448551434,103.88957580843,434.07462637151,648.15
0.02079890176,1.8499957093064,0.019277829897725,27172.429272298,0.16073399582381,54344.733958302,0.00068949164483579,27172.448550128,103.88859055576,433.09927437687,648.15
0.025958682112,1.8499956933218,0.019278953788886,27172.429269587,0.16053728041598,54344.733488743,0.00068864780871251,27172.448548541,103.89464722652,432.56922284698,648.15
0.0321504185344,1.8499956679994,0.01928133048878,27172.429265292,0.16048335203023,54344.732744883,0.00068841647983855,27172.448546623,103.90745530727,432.42391230072,648.15
0.03958050224128,1.8499956353147,0.019284563243706,27172.429259749,0.16048807352832,54344.731784752,0.00068843673946689,27172.448544312,103.92487668482,432.43663442206,648.15
0.048496602689536,1.8499955959812,0.01928845661261,27172.429253078,0.16049953223779,54344.730629306,0.000688485900573,27172.448541535,103.94585812361,432.46751002327,648.15
0.059195923227443,1.8499955492008,0.019293056801748,27172.429245144,0.16050448739671,54344.729255102,0.0006885071651472,27172.448538201,103.97064863003,432.48086174592,648.15
0.072035107872932,1.8499954934025,0.019298523772791,27172.429235681,0.16050557671925,54344.727615994,0.00068851184833664,27172.448534204,104.00011024055,432.48379693581,648.15
0.087442129447518,1.8499954267191,0.01930504741074,27172.429224371,0.16050609793771,54344.725657128,0.00068851409658729,27172.448529419,104.03526624906,432.48520136388,648.15
0.10593055533702,1.8499953470435,0.019312834434623,27172.429210858,0.16050698834897,54344.723316612,0.0006885179309616,27172.448523693,104.07723066829,432.48760058548,648.15
0.12811666640443,1.8499952519319,0.019322121057002,27172.429194727,0.16050819695256,54344.72052265,0.00068852313314055,27172.448516848,104.12727645224,432.4908571793,648.15
0.15473999968531,1.8499951385141,0.019333183635523,27172.429175492,0.16050964213867,54344.717190936,0.0006885293535813,27172.448508675,104.18689289748,432.49475124696,648.15
0.18668799962237,1.8499950034295,0.019346344809631,27172.429152581,0.16051133875462,54344.713222744,0.00068853665659922,27172.448498926,104.2578187141,432.49932279472,648.15
0.22502559954685,1.849994842765,0.019361978599134,27172.429125332,0.16051332990028,54344.708503126,0.00068854522780585,27172.448487311,104.34206950193,432.50468795556,648.15
0.27103071945622,1.8499946519918,0.019380515544813,27172.429092977,0.1605156598715,54344.702899051,0.00068855525805781,27172.448473493,104.44196545339,432.51096608507,648.15
0.32623686334746,1.849994425904,0.019402447408517,27172.429054633,0.16051837330956,54344.696257586,0.0006885669398197,27172.44845708,104.56015668241,432.51827746962,648.15
0.39248423601695,1.8499941585633,0.019428330769802,27172.429009292,0.16052151531719,54344.688404293,0.00068858046767202,27172.448437623,104.69964260676,432.52674363894,648.15
0.47198108322034,1.8499938432575,0.019458788875783,27172.428955816,0.16052512933561,54344.679141996,0.00068859602921233,27172.448414605,104.86378191695,432.53648164582,648.15
0.56737729986441,1.8499934724775,0.01949451106757,27172.428892932,0.16052925386392,54344.66825011,0.00068861379098676,27172.448387443,105.05628948528,432.54759522642,648.15
0.6818527598373,1.84999303792,0.019536249146947,27172.428819231,0.16053391828183,54344.655484724,0.00068863388057083,27172.44835548,105.28121678582,432.56016354468,648.15
0.81922331180476,1.8499925305208,0.019584810262321,27172.428733176,0.1605391378515,54344.640579568,0.00068865636512265,27172.448317986,105.5429135566,432.57422772458,648.15
0.98406797416571,1.8499919405196,0.019641046352696,27172.428633111,0.16054490821511,54344.623247927,0.00068868122776784,27172.448274158,105.84597091308,432.58977602399,648.15
1.1818815689988,1.8499912575526,0.019705840932587,27172.42851728,0.16055120002795,54344.603185361,0.00068870834455976,27172.448223121,106.19515013171,432.60672937331,648.15
1.4192578827986,1.8499904707602,0.019780094993634,27172.42838384,0.16055795470925,54344.580072865,0.0006887374662321,27172.448163935,106.5953066735,432.62492992604,648.15
1.7041094593583,1.8499895688875,0.019864714866492,27172.428230882,0.16056508256473,54344.553579811,0.00068876821012668,27172.448095597,107.05132477154,432.64413600016,648.15
2.04593135123,1.8499885403472,0.019960605677593,27172.428056442,0.16057246457081,54344.523365824,0.00068880006783482,27172.448017047,107.5680821693,432.66402688547,648.15
2.456117621476,1.8499873732158,0.02006867405563,27172.427858496,0.16057995872057,54344.489080638,0.0006888324324201,27172.44792717,108.15046470601,432.68421994299,648.15
2.9483411457712,1.8499860551361,0.020189842531828,27172.427634949,0.16058741090207,54344.450361256,0.0006888646451002,27172.447824792,108.80344391989,432.70429991663,648.15
3.5390093749255,1.8499845731241,0.02032507553115,27172.4273836,0.16059466891231,54344.406826265,0.00068889605539778,27172.447708676,109.53221711536,432.72385669399,648.15
4.2478112499105,1.8499829132996,0.020475413557386,27172.427102094,0.16060159683906,54344.358067924,0.00068892608288343,27172.447577507,110.34239158704,432.74252405826,648.15
5.0983734998927,1.8499810605854,0.020642009471181,27172.426787873,0.16060808636224,54344.303643333,0.00068895426571063,27172.447429882,111.2401801228,432.76001013993,648.15
6.1190481998712,1.8499789984263,0.020826160204753,27172.42643813,0.16061406215173,54344.243066172,0.00068898028382304,27172.447264291,112.23257191493,432.77611196131,648.15
7.3438578398454,1.8499767085621,0.021029329580789,27172.426049769,0.16061948048955,54344.175800037,0.00068900395308641,27172.447079099,113.32745553163,432.79071172389,648.15
8.8136294078145,1.8499741708595,0.021253162148513,27172.425619374,0.16062432267585,54344.101253501,0.00068902519703398,27172.446872536,114.53369347981,432.80375904074,648.15
10.577355289377,1.8499713631757,0.021499491767741,27172.42514319,0.16062858636438,54344.018776105,0.00068904400972415,27172.446642682,115.86116846478,432.81524758988,648.15
12.693826347253,1.8499682612167,0.021770349945034,27172.424617097,0.16063227785706,54343.927654196,0.00068906042271326,27172.446387447,117.32082831388,432.82519435188,648.15
15.233591616703,1.8499648383629,0.022067977439092,27172.42403658,0.16063540689514,54343.827105812,0.00068907448274373,27172.446104558,118.9247485182,432.83362557462,648.15
18.281309940044,1.8499610654549,0.022394840112714,27172.423396694,0.16063798382397,54343.716274378,0.00068908623962198,27172.445791534,120.68621765907,432.84056913379,648.15
21.938571928053,1.8499569105439,0.022753648346151,27172.42269202,0.16064001818978,54343.594221375,0.00068909574024508,27172.445445668,122.61984202703,432.84605075171,648.15
26.327286313664,1.8499523386131,0.023147379116603,27172.421916618,0.16064151792816,54343.459918163,0.00068910302517184,27172.445063997,124.7416646086,432.85009181098,648.15
31.593743576396,1.8499473112739,0.023579300386897,27172.421063979,0.16064248875274,54343.312237057,0.0006891081260564,27172.444643279,127.06929651738,432.85270770701,648.15
37.913492291676,1.8499417864349,0.02405299790908,27172.420126963,0.16064293365601,54343.149941597,0.00068911106356859,27172.444179961,129.62206143908,432.85390650309,648.15
45.497190750011,1.8499357179416,0.024572404698504,27172.419097743,0.16064285251431,54342.971675964,0.00068911184576633,27172.443670148,132.42115446793,432.85368786603,648.15
54.597628900013,1.849929055183,0.0251418334314,27172.417967734,0.1606422417762,54342.775953434,0.00068911046683154,27172.443109568,135.48981669788,432.85204222641,648.15
65.518154680015,1.8499217426639,0.025766012015077,27172.416727524,0.16064109420363,54342.561143799,0.00068910690603936,27172.442493536,138.85352691098,432.84895008123,648.15
78.622785616018,1.8499137195375,0.026450122589577,27172.415366794,0.16063939864098,54342.325459646,0.00068910112685394,27172.441816916,142.54021175809,432.84438137161,648.15
94.348342739222,1.8499049190955,0.027199844082151,27172.413874228,0.16063713979466,54342.066941383,0.0006890930760771,27172.441074072,146.58047508576,432.83829488881,648.15
113.21901128707,1.8498952682123,0.028021397142789,27172.412237424,0.16063429801063,54341.783440896,0.00068908268299707,27172.440258821,151.00784009465,432.83063767482,648.15
135.86381354448,1.8498846867361,0.028921583228081,27172.410442787,0.16063084904027,54341.472603685,0.00068906985849654,27172.43936437,155.85895996317,432.82134439152,648.15
163.03757625338,1.8498730868254,0.029907782976478,27172.408475418,0.16062676378686,54341.131849349,0.00068905449408763,27172.438383201,161.17360909178,432.81033663749,648.15
195.64609150405,1.8498603722223,0.030987808855845,27172.406318989,0.16062200802613,54340.758350252,0.00068903646084741,27172.437306798,166.99388901781,432.79752219515,648.15
234.77630980486,1.849846437458,0.032169383346847,27172.403955611,0.16061654209559,54340.349008192,0.00068901560823139,27172.436124995,173.36141633588,432.78279419354,648.15
281.73257176583,1.8498311669852,0.033458895661081,27172.401365684,0.16061032054734,54339.900428889,0.00068899176274416,27172.43482458,180.31062262833,432.76603017284,648.15
338.080086119,1.8498144342254,0.034859129316795,27172.398527737,0.16060329175737,54339.408894031,0.00068896472643857,27172.433386866,187.85650832774,432.74709103169,648.15
405.6971033428,1.8497961005116,0.036365991833446,27172.395418244,0.16059539747034,54338.870330188,0.00068893427515721,27172.431784236,195.97701897892,432.72581980049,648.15
486.83752401136,1.8497760138236,0.037964854748642,27172.392011418,0.16058657219297,54338.280271676,0.00068890015616266,27172.429976273,204.5933215209,432.70204000702,648.15
584.20602881363,1.849754006904,0.039627608916922,27172.388278882,0.16057674212592,54337.633805208,0.00068886208390238,27172.427906491,213.55393523623,432.67555279825,648.15
701.04823457636,1.8497298933816,0.04131162198176,27172.384189014,0.16056582276814,54336.925456021,0.00068881973044869,27172.425500636,222.62911354788,432.64613048527,648.15
841.25888149163,1.8497034584434,0.042961419687803,27172.379705367,0.16055371335609,54336.148913849,0.00068877270337428,27172.422666787,231.51990464274,432.61350155978,648.15
1009.51165779,1.8496744375962,0.044513378632665,27172.374783061,0.16054028526352,54335.29640905,0.00068872049993257,27172.41929644,239.88344079994,432.57731943716,648.15
1211.4149893479,1.8496424752833,0.045903246727439,27172.369361765,0.1605253613663,54334.357496933,0.00068866242622234,27172.415265012,247.37346629506,432.53710685472,648.15
1453.6989872175,1.8496070582968,0.047075784048246,27172.363354402,0.16050868529353,54333.317101704,0.00068859747764391,27172.410430186,253.69229213173,432.49217301868,648.15
1744.439784661,1.8495674290986,0.047994963669174,27172.356632444,0.16048988356636,54332.15297023,0.0006885241925611,27172.404627407,258.64576852365,432.44151158669,648.15
2093.3287415933,1.8495224974198,0.048652086382358,27172.349010911,0.16046842816632,54330.833075204,0.00068844050809366,27172.397662998,262.18701527482,432.38369980805,648.15
2511.9954899119,1.8494707754548,0.04906858916353,27172.34023738,0.16044360905368,54329.31371145,0.00068834365415844,27172.38930597,264.4315566536,432.31682447393,648.15
3014.3955878943,1.8494103545633,0.049291243820798,27172.329988016,0.16041452307293,54327.538811508,0.00068823011003138,27172.37927926,265.63144682002,432.23845202327,648.15
3617.2757054731,1.8493389203343,0.04938017443726,27172.317870114,0.16038007762584,54325.440388173,0.00068809561705434,27172.367250288,266.11069559701,432.14563843977,648.15
4340.7318465678,1.8492537787783,0.049393628519629,27172.303426518,0.16033899801109,54322.93930388,0.00068793520491372,27172.352820147,266.18319990179,432.03494902867,648.15
5208.8792158813,1.8491518539605,0.049375509721413,27172.286135193,0.16028982213768,54319.945201202,0.00068774316894155,27172.335510702,266.08555735493,431.90244417193,648.15
6250.6560590576,1.8490296260326,0.049350420249152,27172.265398663,0.16023086967646,54316.354682483,0.00068751294865681,27172.314749083,265.95034971357,431.74359620672,648.15
7500.7882708691,1.8488830042441,0.049326711023043,27172.240522419,0.16016018331298,54312.047579473,0.00068723689842812,27172.28984913,265.82258024488,431.55313113073,648.15
9000.9469250429,1.8487071544169,0.049303743639083,27172.21068556,0.16007545024142,54306.881885291,0.00068690598141278,27172.259989304,265.69880857758,431.32481706672,648.15
10801.137310052,1.8484963064582,0.049278412211664,27172.174908026,0.15997391467978,54300.688099994,0.00068650942807724,27172.224186439,265.56229703529,431.05122853405,648.15
12961.365772062,1.8482435531453,0.04924830186004,27172.132016281,0.15985228625202,54293.263319775,0.00068603437774625,27172.181264582,265.40003177992,430.72349958327,648.15
15553.639926474,1.8479406323772,0.049212001968348,27172.080606115,0.15970664121277,54284.364840459,0.00068546549130471,27172.129818117,265.20441097585,430.3310576453,648.15
18664.368911769,1.8475776768002,0.04916841112299,27172.018999806,0.15953231021513,54273.702802611,0.00068478451050944,27172.068168217,264.96949908435,429.86132112073,648.15
22397.243694123,1.8471429174125,0.049116267057056,27171.945195299,0.1593238911833,54260.931484744,0.00068397036053348,27171.994311566,264.68849372511,429.29973406513,648.15
26876.693432947,1.8466223366058,0.049053913539452,27171.856806579,0.15907458782892,54245.639111199,0.00068299636366016,27171.905860493,264.35246943739,428.6279838151,648.15
32252.033119537,1.8459992610967,0.048979417176008,27171.750993518,0.15877674017101,54227.335894274,0.00068183257622741,27171.799972935,263.95100712339,427.82543047934,648.15
38702.440743444,1.8452538945178,0.0488904925,27171.624380995,0.15842120507402,54205.440303798,0.00068044319370596,27171.673271487,263.47179035962,426.86743779255,648.15
46442.929892133,1.8443627825814,0.048784455233194,27171.472965902,0.15799725011344,54179.263355997,0.00067878616246117,27171.521750357,262.90035351983,425.72508713515,648.15
55731.51687056,1.8432982085747,0.048658168697224,27171.292011356,0.15749233431341,54147.990855807,0.00067681230604788,27171.340669525,262.21979298486,424.36458672889,648.15
66877.821244672,1.8420275200325,0.048507987856607,27171.075927854,0.15689188378885,54110.663617466,0.00067446442496125,27171.124435842,261.41046558946,422.74666710242,648.15
80253.386493606,1.8405123930841,0.048329705131199,27170.818141893,0.15617907522677,54066.15585428,0.00067167641814329,27170.866471598,260.4496966045,420.82599767948,648.15
96304.064792327,1.8387080494492,0.048118503126423,27170.510953794,0.15533464687812,54013.1521774,0.0006683725003264,27170.559072297,259.31152499934,418.55067749479,648.15
115564.87875079,1.8365624532576,0.047868921369154,27170.145388219,0.15433676545053,53950.124001913,0.0006644666228493,27170.19325714,257.96652418085,415.86187653524,648.15
138677.85550095,1.8340155317902,0.047574846821756,27169.711043298,0.1531609880355,53875.306655656,0.00065986224720858,27169.758618145,256.3817508734,412.69373315233,648.15
166413.42760114,1.8309984868488,0.047229541065468,27169.195947573,0.15178037061163,53786.679150277,0.00065445266915248,27169.243177114,254.52089161061,408.97364642514,648.15
199696.11412137,1.8274332924392,0.046825720301141,27168.586438081,0.15016578768253,53681.949425378,0.00064812214283861,27168.633263801,252.34469386089,404.62313742779,648.15
239635.33794564,1.8232325098571,0.046355707189994,27167.867077948,0.14828653910958,53558.548916558,0.00064074810172028,27167.913433656,249.81178430007,399.55948434589,648.15
287562.40653477,1.8182995919033,0.045811675157948,27167.020637488,0.14611132661076,53413.641491916,0.00063220480214024,27167.066449163,246.87998537216,393.69835366208,648.15
345074.88884173,1.8125298906786,0.045186004796197,27166.028168506,0.14360967845082,53244.153056619,0.00062236870729194,27166.07335451,243.50823593877,386.95763899707,648.15
414089.86761007,1.8058126222385,0.044471766712693,27164.869206288,0.1407538797663,53046.82926583,0.0006111258573699,27164.913678054,239.65919337484,379.26266238871,648.15
496907.84213209,1.7980340668173,0.043663333803537,27163.522136009,0.13752142047165,52818.329533198,0.0005983813078873,27163.565799343,235.30253311086,370.55277019824,648.15
596289.4115585,1.7890822820725,0.042757107035347,27161.964758007,0.13389789723801,52555.365485248,0.00058407043930153,27162.007515115,230.41885988776,360.78915251966,648.15
715547.2948702,1.77885356263,0.041752312421309,27160.175077021,0.1298802004634,52254.890714395,0.0005681715432272,27160.216829333,225.00400267591,349.96343050091,648.15
858656.75484424,1.7672607751999,0.040651795364379,27158.132321738,0.12547969116092,51914.345627963,0.00055071860559454,27158.172973533,219.07329540576,338.10621649947,648.15
1030388.1068131,1.7542435209854,0.039462707732301,27155.818171249,0.12072494946329,51531.955975058,0.0005318127176323,27155.857633957,212.6652796281,325.29451995363,648.15
1236465.7291757,1.7397798136194,0.038196975203318,27153.218123129,0.11566364528361,51107.075892959,0.00051163042048777,27153.256320105,205.8442230489,311.65678789585,648.15
1483758.8760109,1.723898665662,0.036871343993411,27150.322894398,0.11036272618778,50640.557643022,0.00049042565435396,27150.359765742,198.70037134335,297.37341117665,648.15
1780510.652213,1.7066925242284,0.035507086356119,27147.129681611,0.10490724430791,50135.116914725,0.00046852682732359,27147.165188697,191.34836108882,282.67356357169,648.15
2136612.7836556,1.6883281676642,0.034129103949652,27143.643068923,0.099396770672985,49595.652922035,0.00044632423438944,27143.677198027,183.92238779318,267.82554016178,648.15
2563935.3413868,1.6690542415665,0.032764628380884,27139.875325129,0.093940201845906,49029.469778562,0.00042425101563521,27139.908089757,176.56920310179,253.12276376726,648.15
3076722.4106641,1.6492032832193,0.031441582468496,27135.845807474,0.08864920699788,48446.335966536,0.00040275819579785,27135.877249056,169.43928361357,238.86612802778,648.15
3692066.8937969,1.6291858443802,0.030186790769747,27131.579185782,0.0836310714275,47858.311690174,0.00038228651066662,27131.609372573,162.67718737578,225.3447141967,648.15
4430480.2735563,1.6094742824737,0.029024231589206,27127.102226002,0.078981704705992,47279.272732236,0.00036323786084902,27127.131250233,156.41213392605,212.81695152225,648.15
