time,atomic_fraction_H_enclosure_2_at_interface,concentration_H_encl_1_inventory,concentration_H_encl_2_inventory,concentration_H_enclosure_1_at_interface,concentration_H_enclosure_2_at_interface,concentration_ratio_H2,mass_conservation_sum_encl1_encl2,pressure_H2_enclosure_1,pressure_H2_enclosure_1_at_interface,temperature
0,3.7,1.9300706899258,54741.5,3.8601413798516,109483,0.011666212064597,54743.43007069,10000,10000,623.15
0.001,3.6999979519765,1.9299792617702,54741.49965012,3.9207415994764,109482.93939898,0.011849362784427,54743.429629382,9999.5262963369,10156.989637584,623.15
0.0022,3.6999955064228,1.9306366646548,54741.499232327,3.9931038386529,109482.86703505,0.012068061731826,54743.429868991,10002.932404144,10344.449712374,623.15
0.00364,3.6999925937616,1.931213816477,54741.498734733,4.0792860837156,109482.7808494,0.012328528795136,54743.42994855,10005.922718568,10567.711599912,623.15
0.005368,3.6999891313813,1.9318445432336,54741.498143228,4.1817317501095,109482.67839757,0.012638148773745,54743.429987771,10009.190613158,10833.10516018,623.15
0.0074416,3.699985022914,1.9325694621974,54741.497441345,4.3032908732171,109482.55682802,0.01300553543778,54743.430010808,10012.946532397,11148.013634108,623.15
0.00992992,3.6999801570471,1.9334156689995,54741.496610071,4.4472550359456,109482.41284702,0.013440637109375,54743.43002574,10017.330863015,11520.964126233,623.15
0.012915904,3.6999744061533,1.9344084335423,54741.4956276,4.6173976237699,109482.24267808,0.01395485835192,54743.430036033,10022.474532354,11961.731888554,623.15
0.0164990848,3.6999676248853,1.9355743164945,54741.494469102,4.81801499522,109482.04202036,0.014561184434967,54743.430043418,10028.515155416,12481.446975927,623.15
0.02079890176,3.6999596488267,1.9369423598319,54741.493106489,5.0539658300868,109481.80600878,0.015274300302983,54743.430048848,10035.60320325,13092.69618068,623.15
0.025958682112,3.6999502932646,1.9385446798672,54741.491508204,5.3307066681361,109481.5291777,0.01611069804486,54743.430052883,10043.905075527,13809.615098453,623.15
0.0321504185344,3.6999393521336,1.9404168202291,54741.489639043,5.6543220503444,109481.20542963,0.017088768068037,54743.430055863,10053.604929381,14647.966211439,623.15
0.03958050224128,3.6999265971741,1.9425979797552,54741.487460012,6.031547920597,109480.82801038,0.018228869924786,54743.430057992,10064.905860158,15625.199512327,623.15
0.048496602689536,3.6999117773402,1.9451311558287,54741.484928222,6.4697870598019,109480.3894915,0.01955337908313,54743.430059378,10078.030644067,16760.492487585,623.15
0.059195923227443,3.6998946184949,1.9480632165208,54741.48199684,6.9771152494882,109479.88176127,0.021086705708783,54743.430060057,10093.222111961,18074.76608475,623.15
0.072035107872932,3.6998748234393,1.9514449023935,54741.478615094,7.562276522932,109479.29602557,0.022855280499935,54743.430059996,10110.74315868,19590.672410094,623.15
0.087442129447518,3.6998520723408,1.9553307506022,54741.474728343,8.2346652056331,109478.62282056,0.024887500633211,54743.430059093,10130.876349805,21332.548203065,623.15
0.10593055533702,3.6998260236555,1.9597789264205,54741.470278239,9.0042914648418,109477.85203997,0.027213625910134,54743.430057165,10153.923048776,23326.325589629,623.15
0.12811666640443,3.6997963156789,1.9648509393553,54741.465202989,9.8817258181159,109476.97298094,0.02986561135457,54743.430053929,10180.201946027,25599.388327315,623.15
0.15473999968531,3.6997625688994,1.9706112124788,54741.459437759,10.878016566144,109475.97441373,0.03287685802187,54743.430048971,10210.046827635,28180.357908451,623.15
0.18668799962237,3.6997243893811,1.977126464758,54741.452915248,12.004572503218,109474.84468179,0.036281858905056,54743.430041713,10243.803375067,31098.78971241,623.15
0.22502559954685,3.6996813734424,1.9844648574245,54741.445566494,13.273001608934,109473.57184016,0.040115711831502,54743.430031351,10281.824742392,34384.755123773,623.15
0.27103071945622,3.699633113944,1.9926948472828,54741.43732194,14.694894825611,109472.1438416,0.044413466402455,54743.430016787,10324.465615088,38068.281390708,623.15
0.32623686334746,3.6995792085301,2.00188368287,54741.42811285,16.281542578415,109470.54878041,0.049209267641926,54743.429996533,10372.074418409,42178.617248058,623.15
0.39248423601695,3.6995192701913,2.0120954743521,54741.417873107,18.043570537911,109468.77520496,0.054535255509358,54743.429968581,10424.983317215,46743.289331555,623.15
0.47198108322034,3.699452359218,2.0283534350152,54741.406442174,19.782299902942,109466.79530926,0.059790967299635,54743.434795609,10509.218370096,51247.604572719,623.15
0.56737729986441,3.6993779761633,2.0472494443105,54741.393734725,21.673479754139,109464.59431467,0.065507618102797,54743.44098417,10607.121568118,56146.85479466,623.15
0.6818527598373,3.6992957240619,2.0681111800316,54741.379682945,23.761565787974,109462.16047499,0.071819610854106,54743.447794125,10715.20950412,61556.205977325,623.15
0.81922331180476,3.6992053100703,2.0909982897704,54741.364236804,26.052580831246,109459.48512498,0.07874519295758,54743.455235094,10833.791221661,67491.260727469,623.15
0.98406797416571,3.6991065645067,2.115934057814,54741.347367314,28.548927229647,109456.56324375,0.086291673118687,54743.463301372,10962.987360299,73958.242510652,623.15
1.1818815689988,3.698999469848,2.1428967457727,54741.329071482,31.248521558235,109453.3943128,0.094452804498321,54743.471968228,11102.685290014,80951.754050616,623.15
1.4192578827986,3.6988841955999,2.1718090912218,54741.309378265,34.143746639553,109449.9833478,0.10320561477687,54743.481187357,11252.484702026,88452.062449757,623.15
1.7041094593583,3.6987611365139,2.2025265924185,54741.288355103,37.22028315715,109446.34202945,0.11250687122385,54743.490881695,11411.636910061,96422.072392026,623.15
2.04593135123,3.6986309513373,2.2348252753493,54741.266114533,40.455890328167,109442.48985007,0.12228939062469,54743.500939808,11578.981469509,104804.16737928,623.15
2.456117621476,3.6984945981844,2.2683899308677,54741.242820237,43.819234406289,109438.45516028,0.1324584926351,54743.511210168,11752.885232172,113517.17487605,623.15
2.9483411457712,3.6983533608683,2.3028042817062,54741.218691541,47.268911061473,109434.27594809,0.14288903825103,54743.521495823,11931.191400014,122453.83370723,623.15
3.5390093749255,3.6982088582001,2.3375451713082,54741.194004998,50.752870933821,109430.00011414,0.1534236865995,54743.531550169,12111.189416581,131479.30591022,623.15
4.2478112499105,3.6980630255056,2.3719836185363,54741.169091234,54.208532885758,109425.68492471,0.16387323107654,54743.541074852,12289.62043161,140431.47012362,623.15
5.0983734998927,3.6979180547985,2.4053963473524,54741.144324728,57.563945983472,109421.39524149,0.17402010761163,54743.549721076,12462.737038118,149123.93179155,623.15
6.1190481998712,3.6977762780537,2.4369919409296,54741.120103871,60.740415264742,109417.20006761,0.18362633158411,54743.557095812,12626.438780972,157352.82542184,623.15
7.3438578398454,3.6976399784552,2.4659556368344,54741.096818715,63.6569930405,109413.16696249,0.19244707985839,54743.562774352,12776.504247775,164908.44965618,623.15
8.8136294078145,3.6975111200195,2.4915152470175,54741.074804788,66.237084137619,109409.35404138,0.20025067049071,54743.566320035,12908.932610718,171592.37867128,623.15
10.577355289377,3.6973910001585,2.5130267879499,54741.054283738,68.417023568114,109405.79969469,0.20684451269354,54743.567310525,13020.387289786,177239.68330596,623.15
12.693826347253,3.6972800935799,2.5300499859447,54741.03533666,70.151839350328,109402.51796903,0.21209254511837,54743.565386646,13108.587157717,181733.86010288,623.15
15.233591616703,3.6971763828608,2.5439908327307,54741.017618902,71.390111561052,109399.44916885,0.21583928465683,54743.561609734,13180.816878933,184941.70170471,623.15
18.281309940044,3.6970759889299,2.5559637717675,54741.000467769,72.166924121783,109396.47851244,0.21819084499634,54743.556431541,13242.850560389,186954.09577086,623.15
21.938571928053,3.6969734382482,2.5669998215806,54740.982948172,72.573922303324,109393.44403776,0.21942441425919,54743.549947993,13300.03007133,188008.45658693,623.15
26.327286313664,3.6968623256646,2.5781222007857,54740.963965865,72.72839144696,109390.15621642,0.21989475016516,54743.542088065,13357.656868437,188408.62105874,623.15
31.593743576396,3.6967361451341,2.5902795665439,54740.942409365,72.742114695039,109386.42253452,0.21993999599723,54743.532688932,13420.646093763,188444.17221277,623.15
37.913492291676,3.696588956309,2.6042605443269,54740.917263832,72.697734091316,109382.06721718,0.21981018468416,54743.521524377,13493.08373999,188329.20076651,623.15
45.497190750011,3.6964156113457,2.6206656691697,54740.887649814,72.640159738688,109376.93793972,0.21964125173268,54743.508315483,13578.081273647,188180.04987548,623.15
54.597628900013,3.6962115170242,2.6399529251786,54740.852782606,72.583354486621,109370.89878875,0.21947554947494,54743.492735531,13678.011582468,188032.89139998,623.15
65.518154680015,3.6959721738457,2.662519633233,54740.811893514,72.524740526265,109363.81662409,0.21930541472267,54743.474413148,13794.933248457,187881.04732333,623.15
78.622785616018,3.6956927979353,2.6887693762449,54740.764165259,72.457581005458,109355.5498909,0.21911061440126,54743.452934635,13930.937298199,187707.06529988,623.15
94.348342739222,3.6953681748285,2.7191389002034,54740.708706993,72.376633408898,109345.94429318,0.2188754431366,54743.427845893,14088.286581399,187497.36418121,623.15
113.21901128707,3.6949926979902,2.7540937131984,54740.644560887,72.27848668331,109334.83393353,0.21858974135921,54743.3986546,14269.392968732,187243.10736538,623.15
135.86381354448,3.6945604707375,2.7941137126873,54740.570719531,72.160232208559,109322.04432912,0.21824487289619,54743.364833244,14476.742884452,186936.75984306,623.15
163.03757625338,3.6940653934273,2.839682290911,54740.486140835,72.018660896686,109307.39499151,0.21783129318802,54743.325823126,14712.840859835,186570.00821937,623.15
195.64609150405,3.6935012189812,2.8912814124851,54740.389757507,71.850194111092,109290.70106965,0.21733833708957,54743.281038919,14980.184029406,186133.5817546,623.15
234.77630980486,3.6928615824914,2.9493911001485,54740.280482105,71.651071846161,109271.77422592,0.21675478528556,54743.229873206,15281.259466522,185617.73985831,623.15
281.73257176583,3.692140008607,3.0144922289156,54740.157208299,71.417529504133,109250.42285468,0.21606939683336,54743.171700528,15618.558660313,185012.73004379,623.15
338.080086119,3.6913299002706,3.0870718379982,54740.01880893,71.145934292536,109226.45174901,0.21527132011956,54743.105880768,15994.605037585,184309.14127625,623.15
405.6971033428,3.6904245186237,3.1676294316681,54739.864132576,70.832895330225,109199.66150608,0.21435042458032,54743.031762007,16411.986608583,183498.18921127,623.15
486.83752401136,3.6894169683517,3.2566822043859,54739.692001026,70.475340664182,109169.84809353,0.21329753222296,54742.948683231,16873.383039204,182571.91571282,623.15
584.20602881363,3.6883002000279,3.3547675803118,54739.501209672,70.07055382544,109136.80291882,0.21210452630322,54742.855977252,17381.578808602,181523.28355428,623.15
701.04823457636,3.687067032383,3.4624426901763,54739.290531281,69.616176873849,109100.31348821,0.2107643580799,54742.752973972,17939.460498773,180346.18430614,623.15
841.25888149163,3.6857101883626,3.5802816486132,54739.058722132,69.110197145903,109060.16447365,0.20927100390773,54742.639003781,18550.002687989,179035.40400523,623.15
1009.51165779,3.6842223349073,3.7088720140614,54738.804528769,68.550934620888,109016.13888991,0.20761942417721,54742.513400783,19216.249608992,177586.59042567,623.15
1211.4149893479,3.6825961190309,3.8488114543319,54738.526694113,67.937038762682,108968.01916212,0.20580555118202,54742.375505567,19941.297872773,175996.24489737,623.15
1453.6989872175,3.6808241985707,4.0007048835434,54738.223962654,67.267494799533,108915.58803571,0.20382630592125,54742.224667538,20728.281634582,174261.73857425,623.15
1744.439784661,3.6788992702394,4.165161799007,54737.895085153,66.541635033694,108858.62940638,0.20167963049057,54742.060246952,21580.358795911,172381.34173275,623.15
2093.3287415933,3.6768140984542,4.3427934590123,54737.538823461,65.759151207927,108796.92917326,0.19936452400381,54741.88161692,22500.696382158,170354.25580825,623.15
2511.9954899119,3.6745615471615,4.5342097136147,54737.153955812,64.920106087164,108730.27618051,0.19688107647241,54741.688165526,23492.45412244,168180.64339825,623.15
3014.3955878943,3.6721337702856,4.7401126449779,54736.739138342,64.031853761828,108658.43826275,0.19425148420211,54741.479250987,24559.269614939,165879.55585267,623.15
3617.2757054731,3.6695248127724,4.9609807972998,54736.293349212,63.082311324666,108581.23920993,0.19143890455201,54741.25433001,25703.622272459,163419.69144947,623.15
4340.7318465678,3.6667279755608,5.1974217878453,54735.815438148,62.078622322237,108498.48079685,0.18846479728432,54741.012859936,26928.660255678,160819.55610813,623.15
5208.8792158813,3.6637368934109,5.4500047320943,54735.304310196,61.022567989923,108409.97467603,0.18533432406673,54740.754314928,28237.332241462,158083.76425909,623.15
6250.6560590576,3.6605455010811,5.7192775748809,54734.758919458,59.9161406033,108315.54137699,0.18205325316821,54740.478197033,29632.477218235,155217.477049,623.15
7500.7882708691,3.657148099033,6.0057619802851,54734.178279701,58.761738835394,108215.01225039,0.17862855381273,54740.184041681,31116.798009694,152226.90842907,623.15
9000.9469250429,3.6535394050747,6.3099482478925,54733.561472397,57.562138349083,108108.23099616,0.17506830965551,54739.871420645,32692.834935155,149119.24897242,623.15
10801.137310052,3.6497146017578,6.6322854963396,54732.907653823,56.320472632758,107995.05506601,0.17138166413469,54739.53993932,34362.914948957,145902.61622729,623.15
12961.365772062,3.6456693825006,6.9731494838757,54732.216061685,55.040207579123,107875.35702819,0.16757874748231,54739.189211169,36128.984913728,142585.98886147,623.15
15553.639926474,3.6413999957228,7.3327380136296,54731.486021063,53.725109899659,107749.02587344,0.16367058560141,54738.818759077,37992.069678606,139179.12483745,623.15
18664.368911769,3.6369032863112,7.7107906333455,54730.71694949,52.379210007155,107615.96824195,0.15966899263289,54738.427740123,39950.819799465,135692.46525672,623.15
22397.243694123,3.6321767341376,8.1059910598502,54729.908360992,51.006760115663,107476.10956313,0.15558644936285,54738.014352052,41998.415406028,132137.02581439,623.15
26876.693432947,3.6272184890835,8.5149636638399,54729.059868896,49.612188358789,107329.39509198,0.15143596976831,54737.57483256,44117.366831612,128524.277939,623.15
32252.033119537,3.6220273970804,8.9309741391316,54728.171186265,48.200048500923,107175.79067961,0.14723095434104,54737.102160404,46272.782576036,124866.01851556,623.15
38702.440743444,3.6166029831611,9.3427255915738,54727.242117983,46.774957789892,107015.28227174,0.14298500786043,54736.584843575,48406.131652789,121174.20888789,623.15
46442.929892133,3.6109452444993,9.7338178958164,54726.272519103,45.341489680768,106847.86978473,0.13871162215315,54736.006336999,50432.442431374,117460.69695124,623.15
55731.51687056,3.605053787435,10.083348540159,54725.262139504,43.90392257053,106673.5415702,0.13442342813115,54735.345488044,52243.415709021,113736.56622965,623.15
66877.821244672,3.5989252332388,10.367803143177,54724.2101707,42.465640469733,106492.19765154,0.13013040569763,54734.577973843,53717.219774866,110010.58326875,623.15
80253.386493606,3.5925471916179,10.564003500832,54723.114203422,41.027923127525,106303.47139997,0.12583626220512,54733.678206923,54733.764705984,106286.06335943,623.15
96304.064792327,3.5858873798792,10.652607211063,54721.968351736,39.588044497635,106106.40757063,0.12153272738975,54732.620958947,55192.834473192,102555.94446429,623.15
115564.87875079,3.5788787253161,10.62147896185,54720.76068465,38.137154747143,105899.0214821,0.11719317367761,54731.382163612,55031.554115036,98797.300394757,623.15
138677.85550095,3.5714052436957,10.468118229687,54719.470780918,36.659133268327,105677.88116096,0.11276910773623,54729.938899147,54236.968025712,94968.369448002,623.15
166413.42760114,3.5632964957158,10.200318395127,54718.068735911,35.131847844655,105437.94330823,0.10819383881099,54728.269054307,52849.454936383,91011.816375508,623.15
199696.11412137,3.5543371006011,9.8345755238256,54716.516723138,33.531494951219,105172.83480679,0.10339537823075,54726.351298662,50954.483559375,86865.97627289,623.15
239635.33794564,3.5442914858081,9.3925467177311,54714.77313684,31.839105040881,104875.58506506,0.098315876061094,54724.165683558,48664.262748284,82481.707035571,623.15
287562.40653477,3.5329364200212,8.8967626461939,54712.798038691,30.046861541994,104539.58866843,0.092930595957592,54721.694801338,46095.527446904,77838.759219615,623.15
345074.88884173,3.5200902336951,8.3672163645338,54710.558009101,28.16169695362,104159.47001504,0.087258840957015,54718.925225466,43351.864821363,72955.092009357,623.15
414089.86761007,3.505630417875,7.8199694668853,54708.028978603,26.205031855525,103731.60406492,0.081363410605064,54715.848948069,40516.492518654,67886.197102274,623.15
496907.84213209,3.4894994221162,7.2676661413173,54705.197002208,24.208847151837,103254.28790042,0.075339036273931,54712.464668349,37654.922067112,62714.923547094,623.15
596289.4115585,3.4717025854924,6.7210003912927,54702.05764088,22.211138288508,102727.67950472,0.069299017452089,54708.778641271,34822.560781704,57539.70153643,623.15
715547.2948702,3.4523062689237,6.1897527158075,54698.615320819,20.250896307427,102153.74249745,0.063360283075388,54704.805073535,32070.08296699,52461.540432506,623.15
858656.75484424,3.4314383980877,5.6829120932186,54694.883042004,18.364500021676,101536.26219941,0.057632641218021,54700.565954098,29444.061934525,47574.682413268,623.15
1030388.1068131,3.4092901904399,5.2081463275897,54690.882223154,16.583105482993,100880.89673512,0.052210926047568,54696.090369482,26984.225783927,42959.839682427,623.15
1236465.7291757,3.3861161179016,4.7712212284588,54686.642179453,14.930978580244,100195.17592871,0.047169890312034,54691.413400682,24720.448081838,38679.874934575,623.15
1483758.8760109,3.3622304872014,4.3757512041576,54682.198960978,13.424747313032,99488.400116288,0.042561791164381,54686.574712182,22671.455646662,34777.864311146,623.15
1780510.652213,3.3380008518515,4.0233144670038,54677.593599074,12.073550452158,98771.445206285,0.038416632853107,54681.616913541,20845.425444798,31277.482517033,623.15
2136612.7836556,3.3138390320132,3.7137904326862,54672.869913178,10.879917457119,98056.49695727,0.03474460777983,54676.583703611,19241.732709951,28185.282316103,623.15
2563935.3413868,3.2901898746066,3.4457768950303,54668.071932518,9.8410867077331,97356.71838961,0.031539884236271,54671.517709413,17853.11239125,25494.109513967,623.15
3076722.4106641,3.2675168965222,3.2169973264036,54663.240831429,8.9504482303864,96685.824968093,0.028784810940831,54666.457828756,16667.769440752,23186.840453835,623.15
3692066.8937969,3.2462832031613,3.0246472993352,54658.41116042,8.1988609651533,96057.519981542,0.026453786055821,54661.435807719,15671.173678367,21239.794500658,623.15
4430480.2735563,3.2269258264641,2.8656517527429,54653.606116817,7.5756851927824,95484.735205074,0.024516301026503,54656.471768569,14847.392728673,19625.408624473,623.15
5316576.3292676,3.2098221789013,2.7368214550164,54648.831681233,7.0694515186922,94978.63827369,0.022938908609213,54651.568502688,14179.902680775,18313.970456087,623.15
6379891.5961211,3.1952491241795,2.6349104504549,54644.069716446,6.6681514988456,94547.421584472,0.021686057927369,54646.704626896,13651.885727337,17274.371176275,623.15
7655869.9163453,3.183338642529,2.5565890896385,54639.270649808,6.3591942571712,94194.990432433,0.020719925455362,54641.827238898,13246.090430692,16473.993129795,623.15
9187043.9006144,3.1740391302197,2.49836442218,54634.347132707,6.1291485974207,93919.8178632,0.019999610138115,54636.845497129,12944.419265162,15878.041745861,623.15
