time,atomic_fraction_H_enclosure_2_at_interface,concentration_H_encl_1_inventory,concentration_H_encl_2_inventory,concentration_H_enclosure_1_at_interface,concentration_H_enclosure_2_at_interface,concentration_ratio_H2,mass_conservation_sum_encl1_encl2,pressure_H2_enclosure_1,pressure_H2_enclosure_1_at_interface,temperature
0,3,0.2010739029386,44385,0.40214780587721,88770,0.0013497476922084,44385.201073903,1000,1000,598.15
10,2.9999546873093,0.20755735809962,44384.992258872,1.2627457579074,88768.659197481,0.0042382452907958,44385.19981623,1032.2441404193,3140.0040966353,598.15
22,2.9999361256246,0.20939603024209,44384.98908783,1.2791866087111,88768.109957233,0.0042934401947896,44385.19848386,1041.3884008907,3180.8867038844,598.15
36.4,2.9999171980015,0.21117702850162,44384.98585427,1.2751358196918,88767.549888864,0.0042798576969293,44385.197031299,1050.2458320814,3170.8138178458,598.15
53.68,2.9998972287734,0.21303436545278,44384.982442764,1.2752130142028,88766.958999405,0.0042801310376605,44385.19547713,1059.4829181678,3171.005773415,598.15
74.416,2.9998762786499,0.21495291422717,44384.978863681,1.2753667447719,88766.339085252,0.0042806619669461,44385.193816596,1069.0244287585,3171.3880472129,598.15
99.2992,2.9998541557843,0.2169520359419,44384.975084247,1.2754500868156,88765.684469658,0.0042809574827434,44385.192036283,1078.9666524161,3171.5952895315,598.15
129.15904,2.9998306107677,0.21905704384266,44384.971061851,1.2754895250647,88764.987772617,0.0042811066550586,44385.190118895,1089.4354793996,3171.6933585711,598.15
164.990848,2.999805382756,0.22129365674808,44384.966751931,1.2754953183642,88764.241275749,0.0042811441017791,44385.188045588,1100.558817002,3171.7077644672,598.15
207.9890176,2.9997782137718,0.22368643047445,44384.962110413,1.2754733828918,88763.437345509,0.0042810898631066,44385.185796843,1112.4587885617,3171.6532186707,598.15
259.58682112,2.9997488473881,0.22625898599069,44384.957093485,1.2754268776873,88762.568394215,0.0042809547240138,44385.183352471,1125.2528681446,3171.5375766012,598.15
321.504185344,2.999717021307,0.22903491934907,44384.951656336,1.2753573096977,88761.626660475,0.0042807439284191,44385.180691256,1139.0584058986,3171.3645855055,598.15
395.8050224128,2.999682460094,0.232038646889,44384.945751906,1.275265294795,88760.603994181,0.0042804597385949,44385.177790553,1153.9968315026,3171.1357768401,598.15
484.96602689536,2.9996448699198,0.23529597779456,44384.939329993,1.275150911786,88759.491700927,0.004280102627065,44385.174625971,1170.1965016634,3170.8513465703,598.15
591.95923227443,2.9996039347546,0.23883449620475,44384.9323366,1.2750138350201,88758.280429387,0.0042796717243364,44385.171171096,1187.7946004642,3170.5104849172,598.15
720.35107872932,2.9995593131137,0.24268386873603,44384.924713378,1.2748533925481,88756.960075036,0.0042791650163468,44385.167397247,1206.9386687646,3170.11152098,598.15
874.42129447518,2.99951063488,0.24687613630945,44384.916397085,1.2746686039909,88755.519686099,0.0042785794737406,44385.163273222,1227.7880555431,3169.6520169007,598.15
1059.3055533702,2.9994574980421,0.25144600845064,44384.907319027,1.2744582066375,88753.947367064,0.0042779111416818,44385.158765035,1250.5153815382,3169.1288327623,598.15
1281.1666640443,2.9993994652928,0.25643116608642,44384.897404471,1.2742206703888,88752.230178013,0.0042771551923072,44385.153835637,1275.3080451456,3168.5381637463,598.15
1547.3999968531,2.9993360604398,0.26187257627001,44384.886572039,1.2739542035663,88750.354028413,0.0042763059466301,44385.148444615,1302.3697876396,3167.8755545797,598.15
1866.8799962237,2.9992667645875,0.26781481167932,44384.874733045,1.2736567518941,88748.303564143,0.0042753568736605,44385.142547857,1331.9222821327,3167.1358970016,598.15
2250.2559954685,2.9991910120522,0.27430631184008,44384.861790799,1.2733259922742,88746.062046624,0.0042743005722049,44385.136097111,1364.2064327156,3166.3134142847,598.15
2710.3071945622,2.9991081859768,0.28139931470393,44384.847639853,1.2729593223803,88743.611223053,0.004273128738805,44385.129039167,1399.4820341745,3165.4016353604,598.15
3262.3686334746,2.9990176136122,0.28914864399354,44384.832165188,1.272553846745,88740.931186786,0.0042718321240874,44385.121313832,1438.0217411,3164.3933602203,598.15
3924.8423601695,2.9989185612363,0.29760760216767,44384.815241345,1.272106359807,88738.000226983,0.0042704004791121,44385.112848947,1480.0906423871,3163.2806177622,598.15
4719.8108322034,2.9988102286898,0.30681838899252,44384.796731474,1.271613326275,88734.794666931,0.004268822492913,44385.103549863,1525.8986099564,3162.0546169615,598.15
5673.7729986441,2.998691743506,0.31679492956539,44384.776486328,1.2710708589955,88731.288690342,0.0042670857218631,44385.093281258,1575.5148974361,3160.705691836,598.15
6818.527598373,2.9985621544992,0.32749874060405,44384.754343149,1.2704746937418,88727.454151633,0.0042651765089894,44385.08184189,1628.7481160797,3159.2232387554,598.15
8192.2331180476,2.99842042403,0.33881280175259,44384.730124328,1.2698201567259,88723.260347049,0.0042630798796782,44385.068937129,1685.0162890409,3157.5956356546,598.15
9840.6797416571,2.9982654156038,0.35052178437058,44384.703635257,1.2691021073368,88718.673647716,0.0042607793573771,44385.054157041,1743.2485232935,3155.8100996435,598.15
11818.815689988,2.9980958659676,0.36230707235304,44384.674659535,1.2683148019595,88713.65667398,0.0042582565251484,44385.036966608,1801.8602466958,3153.8523483745,598.15
14192.578827986,2.9979103152171,0.373761920956,44384.642946978,1.2674515524723,88708.166227273,0.0042554899273297,44385.016708899,1858.8285973149,3151.7057508436,598.15
17041.094593583,2.9977069474939,0.3844281064943,44384.608186345,1.266503962966,88702.148576343,0.0042524526177907,44384.992614451,1911.8746932151,3149.3494293804,598.15
20459.3135123,2.9974832856482,0.39385204456233,44384.569953092,1.2654604990625,88695.53042233,0.004249107569321,44384.963805137,1958.7427249701,3146.7547020483,598.15
24561.17621476,2.9972357125375,0.4016544702233,44384.527627478,1.2643042892829,88688.204733986,0.004245400624214,44384.929281949,1997.546495857,3143.8796154192,598.15
29483.411457712,2.9969588695996,0.4076014649042,44384.480291653,1.263010410841,88680.012951451,0.0042412517951422,44384.887893118,2027.1226596156,3140.6621952989,598.15
35390.093749255,2.9966450756153,0.41165713794227,44384.426630117,1.2615433159021,88670.727787458,0.0042365470151486,44384.838287255,2047.2927213631,3137.0140467392,598.15
42478.112499105,2.9962839461626,0.41399544268946,44384.364864356,1.2598552103296,88660.041966952,0.0042311329331053,44384.778859798,2058.9218025766,3132.8163225496,598.15
50983.734998927,2.9958623243218,0.41495731495866,44384.292740495,1.2578875592995,88647.566176682,0.0042248219771085,44384.70769781,2063.7054779076,3127.9234672328,598.15
61190.481998712,2.995364489334,0.41495911679257,44384.207564213,1.255566152199,88632.835239394,0.0042173755741065,44384.62252333,2063.7144389607,3122.1509451238,598.15
73438.578398454,2.9947724176839,0.41438547265513,44384.106244316,1.2528109270204,88615.315839267,0.004208536884632,44384.520629788,2060.8615369726,3115.2996701988,598.15
88136.294078145,2.9940658481122,0.41350742282687,44383.985302386,1.2495313599973,88594.408445641,0.0041980151730477,44384.398809808,2056.4947354363,3107.1445417231,598.15
105773.55289377,2.9932219604114,0.41245669975704,44383.840815865,1.2456267050484,88569.437808574,0.0041854867026813,44384.253272565,2051.2691787903,3097.4350396648,598.15
126938.26347253,2.9922146852501,0.41125398864078,44383.668297258,1.2409835349579,88539.632536551,0.0041705867758497,44384.079551247,2045.2877406292,3085.889110475,598.15
152335.91616703,2.9910138287045,0.40986124767962,44383.462540475,1.2354727363415,88504.099191365,0.0041528999944673,44383.872401722,2038.3612278355,3072.1856946268,598.15
182813.09940044,2.9895842226084,0.4082244221883,44383.217469895,1.2289470145337,88461.797146981,0.0041319521151143,44383.625694317,2030.2208104696,3055.9585221483,598.15
219385.71928053,2.9878850107504,0.40629182412686,44382.926010257,1.2212395178355,88411.517468103,0.0041072054417218,44383.332302081,2020.6094286185,3036.7926916115,598.15
263272.86313664,2.9858690719537,0.40401450623445,44382.579976613,1.2121637149196,88351.865839109,0.0040780581753183,44382.983991119,2009.2836530746,3014.2243652814,598.15
315937.43576396,2.9834825603972,0.40134169349224,44382.169979711,1.2015145813087,88281.248962154,0.0040438478912863,44382.571321405,1995.9909646494,2987.743719471,598.15
379134.92291676,2.9806646003832,0.39821864376626,44381.685351423,1.1890714019201,88197.865525338,0.0040038601221334,44382.083570067,1980.459114517,2956.8019134813,598.15
454971.90750011,2.9773472409728,0.39458748756442,44381.114105895,1.174602756751,88099.704860384,0.0039573438652585,44381.508693382,1962.4003005746,2920.8234872471,598.15
545976.28900013,2.9734558200361,0.3903894991485,44380.442958894,1.1578743453888,87984.55771487,0.0039035361343423,44380.833348393,1941.5224623541,2879.2258181369,598.15
655181.54680015,2.9689099148345,0.38556808752054,44379.657431638,1.138660232382,87850.044379954,0.0038416974611847,44380.042999726,1917.5441560821,2831.4470842337,598.15
786227.85616018,2.9636250794637,0.3800725874216,44378.742068276,1.1167578871715,87693.666101331,0.0037711596216382,44379.122140864,1890.2134084385,2776.9836633461,598.15
943483.42739222,2.9575155844293,0.37386297360734,44377.680797577,1.0920070152517,87512.886143262,0.0036913856949696,44378.054660551,1859.3311620429,2715.4369594775,598.15
1132190.1128707,2.9504983667765,0.36691538242273,44376.457467019,1.0643115857551,87305.246672916,0.0036020407184929,44376.824382402,1824.7787358798,2646.5681776718,598.15
1358638.1354448,2.9424983562304,0.35922808331814,44375.056569111,1.0336636606028,87068.526360858,0.0035030686755828,44375.415797194,1786.547523414,2570.3575787218,598.15
1630375.7625338,2.9334552511454,0.35082731411008,44373.464163558,1.0001667124555,86800.940881392,0.0033947686264582,44373.814990872,1744.7680130683,2487.0624627027,598.15
1956460.9150405,2.9233316685974,0.34177218615166,44371.668973694,0.96405527222631,86501.384073796,0.0032778600394588,44372.01074588,1699.734183088,2397.2660254192,598.15
2347763.0980486,2.9121223833814,0.33215774212333,44369.66360159,0.92570724612721,86169.701324256,0.0031535256620118,44369.995759332,1651.9187088379,2301.9079865622,598.15
2817325.7176583,2.8998641084505,0.32211528655451,44367.445765473,0.88564538257285,85806.978969051,0.0030234205231599,44367.76788076,1601.9746065847,2202.2882373832,598.15
3380800.86119,2.8866449588563,0.31180950056766,44365.019416984,0.84452593487245,85415.824332559,0.0028896405478496,44365.331226484,1550.7208842655,2100.0386488005,598.15
4056971.033428,2.8726125048522,0.30143132136441,44362.395566163,0.80311031936686,85000.604018577,0.0027546358823524,44362.696997484,1499.1071290661,1997.0525951647,598.15
4868375.2401136,2.857978870099,0.29118901714599,44359.592579923,0.76222975792071,84567.594766229,0.0026211019317936,44359.883768941,1448.1691203602,1895.3970325862,598.15
5842060.2881363,2.8430212673767,0.28129576273528,44356.635727345,0.72273556137419,84124.999301676,0.0024918212629856,44356.917023108,1398.9670396022,1797.1888713844,598.15
7010482.3457636,2.8280760837384,0.27195681879638,44353.555717197,0.68544801434859,83682.771317819,0.0023694988133488,44353.827674016,1352.5217087939,1704.4678705965,598.15
8412588.8149163,2.8135246651697,0.26335687965767,44350.385996603,0.65110572896414,83252.194842371,0.0022565952552742,44350.649353482,1309.7516674657,1619.0706985057,598.15
10095116.5779,2.7997692659684,0.25564858613867,44347.158639333,0.62031962006783,82845.172580004,0.0021551718913891,44347.414287919,1271.4160435665,1542.5164852379,598.15
12114149.893479,2.7871985556779,0.24894260513514,44343.898793162,0.59353310174745,82473.205262509,0.0020667526737624,44344.147735767,1238.0652163058,1475.9078455066,598.15
14536989.872175,2.7761439993871,0.24329924473846,44340.617929832,0.57098841327481,82146.100941865,0.00199220404795,44340.861229077,1209.9991156622,1419.8471430904,598.15
17444397.84661,2.7668316834612,0.23872158681884,44337.306597927,0.55269903051504,81870.549513617,0.0019316340400063,44337.545319514,1187.2330686879,1374.3678877209,598.15
20933287.415933,2.7593385453006,0.23515100728002,44333.927993821,0.53843166358568,81648.827555443,0.0018843241541063,44334.163144828,1169.4755204101,1338.8899696001,598.15
25119954.899119,2.7535663351289,0.23246710487439,44330.414288239,0.52770591988011,81478.027856464,0.0018487224363783,44330.646755344,1156.1276798082,1312.218821458,598.15
30143955.878943,2.7492476184143,0.23049619283288,44326.667782107,0.51982824851503,81350.237028879,0.0018225542523162,44326.8982783,1146.3257512004,1292.6298264419,598.15
36172757.054731,2.7459923033722,0.22903135305007,44322.568121335,0.51397212031569,81253.912256783,0.0018030900696528,44322.797152688,1139.0406696388,1278.0676975088,598.15
43407318.465678,2.7433685792062,0.2278636129876,44317.984653001,0.50930267529732,81176.276258713,0.0017875631563537,44318.212516614,1133.233152873,1266.4564318245,598.15
52088792.158813,2.7409940280273,0.2268165636802,44312.790307456,0.50511510882486,81106.013289328,0.0017736332912645,44313.017124019,1128.0258669344,1256.0434284182,598.15
62088792.158813,2.7386959461942,0.22581192207553,44307.104291531,0.50109683667748,81038.013047885,0.0017602618193146,44307.330103453,1123.0294870463,1246.051400391,598.15
72088792.158813,2.7366422125618,0.22492121712063,44301.677969955,0.49753423098262,80977.243069703,0.0017484027170293,44301.902891172,1118.5997478216,1237.1924543946,598.15
82088792.158813,2.7347616967213,0.22411146372725,44296.477540909,0.49429543627149,80921.598605984,0.0017376182684678,44296.701652372,1114.5726046591,1229.1387123033,598.15
92088792.158813,2.7330325734767,0.22337177952351,44291.479392236,0.49133691893091,80870.433849176,0.0017277643616869,44291.702764016,1110.8939363042,1221.7819213489,598.15
102088792.15881,2.7314427292971,0.22269577566539,44286.664130845,0.48863310892385,80823.390359902,0.0017187565197487,44286.886826621,1107.5319691456,1215.0584978525,598.15
112088792.15881,2.7299796499495,0.22207712274484,44282.014740022,0.48615868127912,80780.097842006,0.0017105109467172,44282.236817145,1104.4552251649,1208.9054675274,598.15
122088792.15881,2.7286300002629,0.22150934911123,44277.516145673,0.48388774856349,80740.16170778,0.0017029418521749,44277.737655023,1101.631518929,1203.258457442,598.15
132088792.15881,2.7273809171762,0.22098636271319,44273.155075186,0.4817959447449,80703.201339245,0.0016959684111741,44273.376061549,1099.0305528643,1198.0568778535,598.15
142088792.15881,2.7262208410828,0.22050276851471,44268.919900377,0.47986169258485,80668.874687639,0.0016895190080507,44269.140403145,1096.6254958608,1193.2470737671,598.15
152088792.15881,2.7251397427862,0.22005393135977,44264.800440062,0.47806645414664,80636.884989044,0.0016835320905855,44265.020493993,1094.3932959165,1188.7829478612,598.15
162088792.15881,2.7241290247279,0.21963590729733,44260.787755913,0.47639445585693,80606.977841697,0.0016779552694045,44261.00739182,1092.3143385962,1184.6252768128,598.15
172088792.15881,2.7231813167721,0.21924533691049,44256.873966567,0.47483226185214,80578.935163287,0.0016727439079262,44257.093211904,1090.3719165258,1180.7406503596,598.15
182088792.15881,2.722290271093,0.21887934352331,44253.052088948,0.4733683668952,80552.56912164,0.0016678597744636,44253.270968291,1088.551723145,1177.1004590281,598.15
192088792.15881,2.7214503888118,0.21853544865709,44249.315906344,0.47199285828018,80527.717004942,0.0016632699220056,44249.534441793,1086.841432246,1173.6800534088,598.15
202088792.15881,2.7206568806303,0.21821150460113,44245.659859363,0.47069714617311,80504.237097851,0.0016589457944699,44245.878070868,1085.2303626282,1170.458073609,598.15
212088792.15881,2.7199055551582,0.21790564068975,44242.078955469,0.46947374876107,80482.005377131,0.0016548625144487,44242.29686111,1083.7092109177,1167.4159149942,598.15
222088792.15881,2.7191927283263,0.2176162199792,44238.568693464,0.46831611898931,80460.912831175,0.0016509983086876,44238.786309684,1082.2698361092,1164.5372973446,598.15
232088792.15881,2.718515148907,0.21734180385586,44235.12500003,0.46721850301683,80440.863256158,0.0016473340386196,44235.342341834,1080.9050835514,1161.8079128834,598.15
242088792.15881,2.7178699366618,0.21708112283688,44231.744176111,0.4661758234371,80421.771425822,0.0016438528129387,44231.961257234,1079.6086397306,1159.2151358882,598.15
252088792.15881,2.7172545306313,0.21683305231337,44228.422851372,0.46518358226546,80403.56156138,0.0016405396656688,44228.639684424,1078.3749116342,1156.747781455,598.15
262088792.15881,2.7166666457038,0.21659659229671,44225.157945357,0.4642377799363,80386.166046375,0.0016373812872987,44225.374541949,1077.198926023,1154.3959040723,598.15
272088792.15881,2.7161042359963,0.21637085043474,44221.946634209,0.46333484737775,80369.524343132,0.0016343657992735,44222.16300506,1076.0762449656,1152.1506287149,598.15
282088792.15881,2.71556546387,0.21615502771251,44218.786322047,0.46247158882272,80353.582075913,0.0016314825640931,44219.002477075,1075.0028947243,1150.0040086354,598.15
292088792.15881,2.7150486736169,0.21594840636512,44215.674616238,0.46164513346707,80338.290252324,0.001628722024758,44215.890564644,1073.975305642,1147.9489051546,598.15
302088792.15881,2.714552369034,0.21575033961997,44212.609305964,0.46085289444413,80323.604599717,0.0016260755684914,44212.825056303,1072.9902611273,1145.978885646,598.15
312088792.15881,2.7140751942398,0.21556024295726,44209.588343567,0.46009253387127,80309.484997557,0.0016235354106124,44209.80390381,1072.0448541902,1144.0881366185,598.15
322088792.15881,2.7136159172052,0.21537758663529,44206.609828253,0.45936193295508,80295.894990101,0.0016210944952001,44206.82520584,1071.1364502685,1142.271389379,598.15
332088792.15881,2.7131734155651,0.21520188927355,44203.671991812,0.4586591663269,80282.80136657,0.0016187464098029,44203.887193702,1070.2626553146,1140.5238562136,598.15
342088792.15881,2.712746664353,0.2150327123238,44200.773186055,0.45798247992983,80270.173798205,0.0016164853119401,44200.988218768,1069.4212882985,1138.8411754002,598.15
352088792.15881,2.7123347253615,0.21486965528938,44197.91187173,0.45733027189838,80257.984523446,0.0016143058655425,44198.126741386,1068.6103574316,1137.2193636636,598.15
362088792.15881,2.7119367378836,0.21471235157744,44195.086608714,0.45670107596927,80246.208073974,0.0016122031857995,44195.301321065,1067.8280395393,1135.654774923,598.15
372088792.15881,2.7115519106303,0.21456046488838,44192.296047301,0.45609354704081,80234.821035549,0.0016101727911451,44192.510607765,1067.0726621042,1134.1440643843,598.15
382088792.15881,2.7111795146531,0.21441368606284,44189.53892045,0.45550644856248,80223.801838586,0.0016082105613231,44189.753334136,1066.3426875854,1132.6841571817,598.15
392088792.15881,2.7108188771286,0.21427173031995,44186.814036862,0.45493864148884,80213.130574235,0.0016063127006514,44187.028308593,1065.6366996834,1131.2722209101,598.15
402088792.15881,2.7104693758835,0.21413433483086,44184.120274783,0.45438907457497,80202.788832392,0.0016044757057442,44184.334409118,1064.9533912725,1129.9056414937,598.15
412088792.15881,2.71013043456,0.21400125658098,44181.456576439,0.45385677582617,80192.759558629,0.0016026963370702,44181.670577695,1064.2915537693,1128.5820019238,598.15
422088792.15881,2.709801518334,0.21387227048121,44178.821943035,0.45334084494371,80183.026927504,0.0016009715938221,44179.035815305,1063.6500677391,1127.2990634745,598.15
432088792.15881,2.7094821301141,0.21374716769481,44176.215430241,0.45284044663303,80173.576230077,0.0015992986916532,44176.429177409,1063.027894575,1126.0547490623,598.15
442088792.15881,2.7091718071578,0.21362575415148,44173.636144117,0.4523548046605,80164.393773799,0.0015976750429022,44173.849769871,1062.4240691081,1124.8471284675,598.15
