time,atomic_fraction_H_enclosure_2_at_interface,concentration_H_encl_1_inventory,concentration_H_encl_2_inventory,concentration_H_enclosure_1_at_interface,concentration_H_enclosure_2_at_interface,concentration_ratio_H2,mass_conservation_sum_encl1_encl2,pressure_H2_enclosure_1,pressure_H2_enclosure_1_at_interface,temperature
0,1.85,0.018556253188726,27172.43,0.037112506377452,54344.86,0.0001591992612457,27172.448556253,100,100,648.15
0.001,1.8499985992617,0.018789467706784,27172.429762435,0.078216820529364,54344.818852473,0.00033552206452177,27172.448551902,101.25679745629,210.75596386259,648.15
0.0022,1.8499974767716,0.018981951837348,27172.42957206,0.11111194304597,54344.785878652,0.00047663046875994,27172.448554012,102.2940980827,299.39218309836,648.15
0.00364,1.8499967164147,0.019111360687927,27172.429443104,0.13332034606024,54344.763542713,0.00057189668684113,27172.448554464,102.99148483024,359.23293540001,648.15
0.005368,1.8499962662339,0.019187642459999,27172.429366753,0.14636233832417,54344.75031838,0.00062784225381805,27172.448554395,103.40256874517,394.3747071017,648.15
0.0074416,1.849996041165,0.019225448874804,27172.429328581,0.15273375141004,54344.743706846,0.00065517338442683,27172.44855403,103.60630823083,411.54254001781,648.15
0.00992992,1.8499959515083,0.019240063107639,27172.429313375,0.15506648203034,54344.741073126,0.00066517998390579,27172.448553439,103.68506460845,417.82810477212,648.15
0.012915904,1.8499959280402,0.019243245982493,27172.429309395,0.15538877616756,54344.740383739,0.00066656251520331,27172.448552641,103.70221718135,418.69652937795,648.15
0.0164990848,1.8499959248847,0.019242773528347,27172.42930886,0.15503958463087,54344.740291044,0.00066506460842659,27172.448551634,103.699671117,417.75562947446,648.15
0.02079890176,1.8499959188277,0.019242560934525,27172.429307833,0.15468809105963,54344.740113115,0.0006635568272592,27172.448550394,103.69852544487,416.80852671706,648.15
0.025958682112,1.8499959030703,0.019243725640853,27172.42930516,0.15451718945186,54344.739650231,0.00066282372304157,27172.448548886,103.70480206934,416.34803071596,648.15
0.0321504185344,1.8499958785422,0.019246062569592,27172.429301,0.15447879099349,54344.738929705,0.00066265901172084,27172.448547063,103.71739582259,416.24456570616,648.15
0.03958050224128,1.8499958473016,0.019249164063525,27172.429295702,0.15448759725284,54344.738011993,0.00066269679303342,27172.448544866,103.73410983215,416.26829425538,648.15
0.048496602689536,1.8499958098872,0.019252868058477,27172.429289356,0.15449835129271,54344.736912921,0.0006627429307376,27172.448542225,103.75407073112,416.29727111769,648.15
0.059195923227443,1.84999576541,0.019257240583564,27172.429281813,0.15450227651606,54344.735606377,0.0006627597765155,27172.448539054,103.77763435166,416.3078476692,648.15
0.072035107872932,1.8499957123377,0.019262440287997,27172.429272812,0.15450299766366,54344.734047348,0.00066276287948861,27172.448535252,103.80565565736,416.30979080823,648.15
0.087442129447518,1.8499956489006,0.019268646717593,27172.429262053,0.15450345588015,54344.732183845,0.00066276485643755,27172.4485307,103.83910222404,416.31102547691,648.15
0.10593055533702,1.8499955731027,0.019276055121324,27172.429249198,0.1545042941522,54344.729957237,0.00066276846590383,27172.448525253,103.87902625211,416.31328420888,648.15
0.12811666640443,1.8499954826208,0.019284889910339,27172.429233852,0.15450540782274,54344.727299276,0.00066277325936223,27172.448518742,103.92663709749,416.31628500472,648.15
0.15473999968531,1.8499953747243,0.019295414070787,27172.429215553,0.15450673042795,54344.72412975,0.00066277895219577,27172.448510967,103.98335199754,416.31984877698,648.15
0.18668799962237,1.8499952462156,0.019307934589359,27172.429193758,0.15450828286461,54344.72035473,0.00066278563461719,27172.448501692,104.05082530934,416.32403183226,648.15
0.22502559954685,1.8499950933722,0.019322807285912,27172.429167835,0.15451010533408,54344.715864865,0.00066279347974307,27172.448490643,104.13097455284,416.32894249351,648.15
0.27103071945622,1.849994911886,0.019340441741094,27172.429137055,0.15451223801601,54344.710533599,0.00066280266070195,27172.448477497,104.22600696591,416.33468902518,648.15
0.32623686334746,1.8499946968043,0.019361305775872,27172.429100577,0.15451472167917,54344.704215445,0.00066281335326495,27172.448461883,104.33844364462,416.34138127909,648.15
0.39248423601695,1.8499944424781,0.019385928871888,27172.429057444,0.15451759761246,54344.696744458,0.00066282573555941,27172.448443373,104.47113797556,416.34913050858,648.15
0.47198108322034,1.8499941425218,0.019414903930716,27172.429006571,0.15452090558112,54344.687933063,0.00066283997930877,27172.448421475,104.62728511654,416.35804386146,648.15
0.56737729986441,1.849993789792,0.019448886728263,27172.428946748,0.15452468082218,54344.677571414,0.00066285623694824,27172.448395635,104.81041905636,416.36821628427,648.15
0.6818527598373,1.8499933763898,0.019488592458377,27172.428876635,0.1545289502249,54344.665427476,0.00066287462523958,27172.448365227,105.02439398821,416.37972023034,648.15
0.81922331180476,1.8499928936922,0.019534788965144,27172.428794769,0.15453372775608,54344.651247946,0.00066289520564199,27172.448329558,105.27334783841,416.39259333335,648.15
0.98406797416571,1.8499923324143,0.01958828670082,27172.428699577,0.15453900942371,54344.63476007,0.00066291796269677,27172.448287863,105.56164814954,416.40682483682,648.15
1.1818815689988,1.8499916826971,0.019649926154223,27172.428589385,0.1545447683647,54344.615674236,0.00066294278293962,27172.448239311,105.89382433175,416.42234235788,648.15
1.4192578827986,1.8499909342098,0.01972056443892,27172.428462441,0.15455095095588,54344.593686972,0.00066296943819981,27172.448183005,106.27449538629,416.43900140837,648.15
1.7041094593583,1.8499900762455,0.019801063746419,27172.42831693,0.154557475096,54344.568483757,0.00066299757821357,27172.448117994,106.70830767954,416.45658076574,648.15
2.04593135123,1.8499890977816,0.019892285122009,27172.428150983,0.15456423183936,54344.539740793,0.00066302673762051,27172.448043268,107.19990140087,416.47478687473,648.15
2.456117621476,1.8499879874752,0.019995091040192,27172.427962674,0.15457109120482,54344.507124878,0.00066305636088301,27172.447957766,107.75392444171,416.49326949993,648.15
2.9483411457712,1.8499867335713,0.020110359104728,27172.427750012,0.15457791213314,54344.470290696,0.00066308584501598,27172.447860371,108.37510622536,416.51164855592,648.15
3.5390093749255,1.8499853237181,0.020239006775411,27172.427510901,0.15458455531423,54344.428875412,0.00066311459464397,27172.447749908,109.06839096002,416.52954867029,648.15
4.2478112499105,1.8499837447114,0.020382023889757,27172.427243101,0.15459089635063,54344.382491145,0.00066314207851386,27172.447625125,109.83911289883,416.54663465293,648.15
5.0983734998927,1.8499819822086,0.020540507175636,27172.42694418,0.15459683610126,54344.330716566,0.00066316787391708,27172.447484688,110.69318232905,416.56263936727,648.15
6.1190481998712,1.8499800204604,0.020715690422577,27172.426611468,0.15460230562144,54344.273089036,0.0006631916879286,27172.447327158,111.63724816583,416.57737704121,648.15
7.3438578398454,1.8499778420958,0.020908966190216,27172.426242016,0.15460726490111,54344.209098268,0.00066321335203314,27172.447150983,112.67881493943,416.59073986726,648.15
8.8136294078145,1.8499754279617,0.021121898971242,27172.425832579,0.15461169682883,54344.138181631,0.00066323279626172,27172.446954478,113.82631373059,416.60268173849,648.15
10.577355289377,1.8499727569932,0.021356233358199,27172.425379582,0.15461559926092,54344.059720331,0.00066325001519415,27172.446735815,115.08914618159,416.61319687873,648.15
12.693826347253,1.849969806079,0.021613901974801,27172.424879106,0.15461897796858,54343.973035454,0.00066326503772892,27172.446493008,116.47772723824,416.62230083852,648.15
15.233591616703,1.8499665498951,0.021897036517733,27172.424326856,0.15462184187026,54343.877383099,0.00066327790666133,27172.446223893,118.00354465436,416.63001764874,648.15
18.281309940044,1.8499629607015,0.022207982838764,27172.423718128,0.15462420043674,54343.771948382,0.00066328866758863,27172.445926111,119.67924026957,416.63637282845,648.15
21.938571928053,1.8499590081039,0.022549319415385,27172.423047766,0.15462606240672,54343.655838458,0.00066329736344294,27172.445597086,121.51870954792,416.6413899242,648.15
26.327286313664,1.8499546587898,0.022923878358338,27172.422310121,0.15462743504426,54343.528074746,0.00066330403135312,27172.445233999,123.53721478787,416.64508850905,648.15
31.593743576396,1.8499498762385,0.02333476861658,27172.421498998,0.15462832357916,54343.387584431,0.00066330870029601,27172.444833766,125.75151017425,416.64748267475,648.15
37.913492291676,1.8499446204065,0.023785401480385,27172.420607606,0.15462873075014,54343.233191214,0.00066331138919308,27172.444393007,128.17997921496,416.64857980083,648.15
45.497190750011,1.8499388473847,0.024279518625872,27172.419628498,0.15462865644334,54343.063605235,0.0006633121054208,27172.443908016,130.84278587352,416.64837958045,648.15
54.597628900013,1.8499325090242,0.024821222941848,27172.418553507,0.15462809740699,54342.877412092,0.00066331084365363,27172.44337473,133.76204069542,416.6468732517,648.15
65.518154680015,1.8499255525289,0.025415012376181,27172.417373679,0.15462704701453,54342.673060869,0.00066330758492052,27172.442788691,136.96198320695,416.64404295927,648.15
78.622785616018,1.8499179200111,0.02606581704824,27172.416079196,0.15462549505318,54342.448851079,0.00066330229577708,27172.442145013,140.46918191479,416.6398611847,648.15
94.348342739222,1.8499095480065,0.02677903974317,27172.414659294,0.15462342752205,54342.20291842,0.00066329492752618,27172.441438333,144.31275253045,416.6342902025,648.15
113.21901128707,1.8499003669444,0.027560598673675,27172.413102172,0.1546208264285,54341.933219213,0.0006632854154384,27172.440662771,148.52458841433,416.62728153128,648.15
135.86381354448,1.8498903005697,0.028416964677834,27172.411394897,0.15461766957364,54341.637513414,0.00066327367793521,27172.439811862,153.13956103541,416.61877535595,648.15
163.03757625338,1.8498792653097,0.029355159693445,27172.409523294,0.15461393032013,54341.313346033,0.00066325961570511,27172.438878454,158.19551174954,416.60869990194,648.15
195.64609150405,1.8498671695841,0.030382616603131,27172.407471828,0.15460957733622,54340.958026833,0.00066324311072858,27172.437854445,163.73249650199,416.59697074558,648.15
234.77630980486,1.8498539130478,0.031506682850519,27172.40522348,0.15460457431113,54340.568608127,0.00066322402519118,27172.436730163,169.79011080567,416.58349004708,648.15
281.73257176583,1.8498393857655,0.032733437720877,27172.402759601,0.15459887963693,54340.141860494,0.00066320220026565,27172.435493039,176.40111604408,416.5681456935,648.15
338.080086119,1.8498234673051,0.034065530587336,27172.400059762,0.15459244605059,54339.674246168,0.00066317745473694,27172.434125292,183.5797897392,416.55081033417,648.15
405.6971033428,1.8498060257306,0.03549906985495,27172.397101581,0.15458522021686,54339.161889452,0.00066314958339093,27172.432600651,191.30516001214,416.53134025673,648.15
486.83752401136,1.849786916399,0.037020141178956,27172.393860521,0.1545771421725,54338.600541371,0.00066311835484344,27172.430880662,199.50224219536,416.50957388966,648.15
584.20602881363,1.8497659801665,0.038602006097199,27172.39030958,0.1545681443479,54337.98552698,0.00066308350766141,27172.428911587,208.02694220971,416.48532916605,648.15
701.04823457636,1.8497430397002,0.040204110163299,27172.386418674,0.15455814937356,54337.311637018,0.00066304474160968,27172.426622784,216.66071137532,416.458397613,648.15
841.25888149163,1.8497178906019,0.041773682243816,27172.382153119,0.15454706498907,54336.572867164,0.00066300169739668,27172.423926801,225.11916505427,416.42853063399,648.15
1009.51165779,1.8496902812022,0.043250198610194,27172.377470212,0.15453477342367,54335.761824484,0.00066295391473058,27172.420720411,233.0761397267,416.39541089458,648.15
1211.4149893479,1.8496598731883,0.044572537112442,27172.372312549,0.15452111250581,54334.868570831,0.00066290075832262,27172.416885086,240.20224696828,416.35860142201,648.15
1453.6989872175,1.8496261782518,0.045688148658553,27172.366597277,0.15450584751361,54333.878761854,0.00066284130845449,27172.412285426,246.2142987266,416.31746975593,648.15
1744.439784661,1.8495884756205,0.0465627616724,27172.360202106,0.15448863651199,54332.771224437,0.00066277422701009,27172.406764867,250.9276048286,416.27109454901,648.15
2093.3287415933,1.8495457279458,0.047188102330043,27172.352951035,0.15446899607833,54331.515485845,0.00066269762543979,27172.400139137,254.29757748031,416.21817321446,648.15
2511.9954899119,1.8494965196304,0.047584567157506,27172.344603891,0.1544462761295,54330.069962056,0.00066260896770985,27172.392188458,256.43413394692,416.15695409711,648.15
3014.3955878943,1.849439034634,0.047796656364567,27172.334852551,0.15441964974108,54328.381305794,0.00066250503044741,27172.382649207,257.577086702,416.08520904128,648.15
3617.2757054731,1.8493710707653,0.047881575329849,27172.323323351,0.15438811647473,54326.384826374,0.00066238191443949,27172.371204926,258.03471661478,416.00024235639,648.15
4340.7318465678,1.8492900645481,0.047894747309402,27172.309581283,0.15435050905008,54324.005220138,0.00066223506850955,27172.357476031,258.10570066214,415.89890879442,648.15
5208.8792158813,1.8491930889007,0.047877952753957,27172.293129574,0.15430548844224,54321.156502312,0.00066205926850106,27172.341007527,258.01519448466,415.77760034012,648.15
6250.6560590576,1.8490767940863,0.04785461254001,27172.273399625,0.15425151555535,54317.74027236,0.00066184850576826,27172.321254238,257.8894136295,415.63216988512,648.15
7500.7882708691,1.8489372867617,0.047832689434822,27172.24973044,0.15418679731912,54313.642160997,0.00066159577677497,27172.29756313,257.77126960029,415.45778598451,648.15
9000.9469250429,1.8487699656419,0.047811596923647,27172.221340669,0.15410921464035,54308.727002711,0.00066129280224684,27172.269152266,257.65760165795,415.24873872163,648.15
10801.137310052,1.8485693380813,0.0477884044358,27172.187297376,0.15401624205272,54302.833447742,0.00066092971359089,27172.23508578,257.53261690154,414.99822320354,648.15
12961.365772062,1.8483288282255,0.04776084309795,27172.146483324,0.15390486346701,54295.76832642,0.00066049472334237,27172.194244167,257.38408832968,414.69811254925,648.15
15553.639926474,1.8480405692535,0.047727604681884,27172.097561488,0.15377148120668,54287.300546163,0.00065997376859072,27172.145289093,257.20496587577,414.33871278525,648.15
18664.368911769,1.8476951643282,0.047687681224091,27172.038934149,0.15361181249505,54277.15406924,0.00065935010466666,27172.08662183,256.98981760534,413.90848392923,648.15
22397.243694123,1.8472814034477,0.047639916353942,27171.968694348,0.15342089390793,54264.999595117,0.00065860436810369,27172.016334265,256.73241181515,413.39405198767,648.15
26876.693432947,1.8467859315262,0.047582792343118,27171.884568854,0.15319249659649,54250.444810141,0.00065771211602092,27171.932151647,256.42456943855,412.77863326839,648.15
32252.033119537,1.8461928587981,0.047514532624444,27171.783851016,0.15291957914504,54233.022942908,0.00065664582569542,27171.831365548,256.05671652138,412.04325461012,648.15
38702.440743444,1.845483312664,0.047433035879071,27171.663323232,0.15259373623619,54212.179599491,0.00065537258831094,27171.710756268,255.61752901652,411.16526780552,648.15
46442.929892133,1.8446349240432,0.04733583225827,27171.519167658,0.15220509281333,54187.257674723,0.00065385371848982,27171.566503491,255.09369686241,410.11806442101,648.15
55731.51687056,1.8436212455274,0.047220032635614,27171.346864415,0.15174209742662,54157.480260114,0.00065204393201519,27171.394084448,254.46965050199,408.87051896557,648.15
66877.821244672,1.8424111014346,0.04708227528652,27171.141076924,0.15119130872822,54121.931551303,0.0006498904909384,27171.188159199,253.72727353777,407.38641360013,648.15
80253.386493606,1.8409678750244,0.04691867353758,27170.895524715,0.15053718627641,54079.535909568,0.00064733235767163,27170.942443389,252.84562061314,405.62387445724,648.15
96304.064792327,1.8392487459364,0.04672476883064,27170.602845152,0.14976190284782,54029.03546113,0.00064429942276224,27170.649569921,251.80066447373,403.53486591467,648.15
115564.87875079,1.8372039022401,0.04649549545986,27170.254447133,0.14884520335015,53968.966950644,0.00064071190138978,27170.300942628,250.5651059348,401.06481043433,648.15
138677.85550095,1.8347757673071,0.04622516570921,27169.840362102,0.14776434527247,53897.639030106,0.00063648003171831,27169.886587267,249.10829378689,398.15242810508,648.15
166413.42760114,1.8318983030256,0.04590748702104,27169.349100771,0.14649416717264,53813.11179036,0.0006315042533682,27169.395008258,247.39631731761,394.72992118271,648.15
199696.11412137,1.8284964784436,0.045535625940783,27168.767527881,0.14500734415223,53713.181152168,0.00062567609353407,27168.813063507,245.39235091084,390.72366246956,648.15
239635.33794564,1.8244860269807,0.045102336476064,27168.080772149,0.14327490084339,53595.371734173,0.00061888003526318,27168.125874485,243.05734577639,386.05557756249,648.15
287562.40653477,1.8197736550278,0.044600172412968,27167.272194082,0.14126706005562,53456.942980634,0.00061099667575427,27167.316794254,240.35117412639,380.64543153963,648.15
345074.88884173,1.8142579073908,0.04402180288078,27166.323440035,0.13895450423791,53294.91458435,0.00060190748475009,27166.367461838,237.23432975966,374.414227982,648.15
414089.86761007,1.8078309353116,0.043360446496947,27165.214615952,0.13631011109844,53106.118423339,0.00059150142055992,27165.257976398,233.67026767716,367.28888561742,648.15
496907.84213209,1.8003814419521,0.042610430005616,27163.924617153,0.13331118708908,52887.285086209,0.00057968352674854,27163.967227583,229.6284145956,359.20825646547,648.15
596289.4115585,1.7917990856442,0.041767860958462,27162.431649354,0.12994215705367,52635.173220249,0.0005663853918681,27162.473417215,225.08779403721,350.13037312031,648.15
715547.2948702,1.7819805869255,0.040831380249784,27160.713968389,0.12619757344789,52346.748929288,0.00055157699835506,27160.754799769,220.04108175562,340.04055712218,648.15
858656.75484424,1.7708376939852,0.039802930895022,27158.750849428,0.122085190894,52019.419763432,0.00053527903604268,27158.790652359,214.49874869785,328.9597033742,648.15
1030388.1068131,1.7583069972705,0.038688449097215,27156.523768833,0.11762873047119,51651.32302902,0.00051757427767992,27156.562457282,208.49278517455,316.95172854901,648.15
1236465.7291757,1.7443613334289,0.037498371584995,27154.017741908,0.11286991003249,51241.660786275,0.00049861642468925,27154.05524028,202.07943491404,304.12904179672,648.15
1483758.8760109,1.7290222246413,0.036247773025661,27151.222716165,0.10786899462736,50791.065262172,0.00047863336576226,27151.258963938,195.339935584,290.65402786404,648.15
1780510.652213,1.7123723557932,0.034956179853057,27148.134855802,0.10270405601991,50301.965374838,0.00045792580574896,27148.169811982,188.37951550637,276.73705185891,648.15
2136612.7836556,1.6945667386824,0.033646820795035,27144.7575111,0.097467975717523,49778.914688839,0.00043685693519911,27144.791157921,181.32335473563,262.62838388286,648.15
2563935.3413868,1.6758407644606,0.032345466955243,27141.101615741,0.092263809349539,49228.827960489,0.00041583556805506,27141.133961208,174.3103342376,248.60570830537,648.15
3076722.4106641,1.6565129889824,0.031078911270918,27137.185226914,0.087198706562173,48661.062959153,0.0003952931124014,27137.216305825,167.48484165866,234.9577408632,648.15
3692066.8937969,1.6369802322242,0.029873255536821,27133.031914673,0.082377060655246,48087.276509725,0.00037565675367717,27133.061787929,160.98754006531,221.96577029164,648.15
4430480.2735563,1.6177025122741,0.028752188129467,27128.66772957,0.077893619845312,47520.981919559,0.00035732152906738,27128.696481758,154.94608656739,209.88509655774,648.15
