time,atomic_fraction_H_enclosure_2_at_interface,concentration_H_encl_1_inventory,concentration_H_encl_2_inventory,concentration_H_enclosure_1_at_interface,concentration_H_enclosure_2_at_interface,concentration_ratio_H2,mass_conservation_sum_encl1_encl2,pressure_H2_enclosure_1,pressure_H2_enclosure_1_at_interface,temperature
0,3.7,1.9300706899258,54344.86,3.8601413798516,108689.72,0.011708708023522,54346.79007069,10000,10000,623.15
0.001,3.6999979264744,1.9299810518319,54344.85964833,3.9210516440553,108689.65908894,0.011893466376497,54346.789629382,9999.5355709284,10157.792832464,623.15
0.0022,3.6999954493835,1.9306407762497,54344.859228215,3.9938159832389,108689.58632291,0.012114181684638,54346.789868991,10002.953706965,10346.294578963,623.15
0.00364,3.6999924971881,1.9312210276954,54344.858727522,4.08053509964,108689.4996004,0.012377226065466,54346.78994855,10005.960081025,10570.947273949,623.15
0.005368,3.6999889848751,1.931855937222,54344.858131834,4.1837052456664,108689.3964241,0.012690171492335,54346.789987771,10009.249647205,10838.217655715,623.15
0.0074416,3.699984813015,1.9325865220038,54344.857424286,4.3062457204052,108689.2738732,0.013061873215101,54346.790010808,10013.034921939,11155.668398267,623.15
0.00992992,3.6999798663449,1.9334404098956,54344.85658533,4.4515402875478,108689.1285618,0.013502595414138,54346.79002574,10017.459049492,11532.065407716,623.15
0.012915904,3.6999740121315,1.9344435787578,54344.855592455,4.6234849478186,108688.95659077,0.01402415613691,54346.790036034,10022.656625246,11977.501580516,623.15
0.0164990848,3.6999670984485,1.9356235250629,54344.854419893,4.8265381324842,108688.75349718,0.01464007958822,54346.790043419,10028.770112753,12503.526833698,623.15
0.02079890176,3.6999589524493,1.9370105169484,54344.853038331,5.0657708736795,108688.51420357,0.015365748362748,54346.790048848,10035.956335997,13123.278075049,623.15
0.025958682112,3.6999493786943,1.9386382611289,54344.851414621,5.3469151313515,108688.23296877,0.016218550102078,54346.790052882,10044.389934772,13851.60439786,623.15
0.0321504185344,3.6999381575827,1.9405443414286,54344.84951152,5.6764087386929,108687.90334189,0.017218013914641,54346.790055861,10054.265636785,14705.183515613,623.15
0.03958050224128,3.6999250439331,1.9427705434839,54344.847287443,6.0614355489654,108687.51812056,0.018385932264759,54346.790057987,10065.799939994,15702.62576548,623.15
0.048496602689536,3.6999097657563,1.9453631049609,54344.844696263,6.5099593458247,108687.06931495,0.019746463974612,54346.790059368,10079.232409025,16864.561955694,623.15
0.059195923227443,3.6998920232684,1.9483729026625,54344.841687135,7.0307498628857,108686.54811872,0.021326213327226,54346.790060038,10094.8266446,18213.710771278,623.15
0.072035107872932,3.6998714882099,1.9518555745703,54344.838204387,7.6333987735113,108685.94488906,0.023154278788637,54346.790059961,10112.870915859,19774.920196847,623.15
0.087442129447518,3.6998478035545,1.9558715657959,54344.834187467,8.3283227031674,108685.2491381,0.025262262414736,54346.790059033,10133.678398438,21575.17532036,623.15
0.10593055533702,3.6998205837329,1.9604860789716,54344.829570982,9.1267491665629,108684.44953951,0.027684227519306,54346.790057061,10157.586917435,23643.561902165,623.15
0.12811666640443,3.6997894155374,1.9657689005605,54344.824284853,10.040679864085,108683.53395506,0.030456587726642,54346.790053753,10184.958047501,26011.171291531,623.15
0.15473999968531,3.6997538599245,1.9717940646856,54344.818254617,11.082824042302,108682.4894876,0.033617905283005,54346.790048682,10216.175371076,28710.92779179,623.15
0.18668799962237,3.6997134549929,1.978639305549,54344.811401936,12.26649270369,108681.30256849,0.03720857067426,54346.790041242,10251.641641297,31777.3146023,623.15
0.22502559954685,3.6996677204683,1.9863852387021,54344.803645356,13.605442419515,108679.95908939,0.041270329429233,54346.790030595,10291.774540022,35245.969203434,623.15
0.27103071945622,3.699616164083,1.9951142008092,54344.794901388,15.113655442795,108678.44458964,0.045845615739009,54346.790015589,10337.000666468,39153.113721902,623.15
0.32623686334746,3.6995582902922,2.0049086677366,54344.785085987,16.805040844159,108676.74451231,0.050976646520448,54346.789994654,10387.747341076,43534.780699677,623.15
0.39248423601695,3.6994933558811,2.0170237818685,54344.774073103,18.648136424452,108674.83702502,0.056568014937059,54346.791096885,10450.517654077,48309.464834081,623.15
0.47198108322034,3.6994205862147,2.0354072274841,54344.76173136,20.487767927443,108672.69937241,0.062149039149593,54346.797138588,10545.765179007,53075.175003643,623.15
0.56737729986441,3.6993393449555,2.0559052426389,54344.747952834,22.539141447312,108670.31286167,0.068372570912901,54346.803858076,10651.968621512,58389.419529962,623.15
0.6818527598373,3.69924910442,2.0786397456455,54344.732648029,24.814492201949,108667.6619918,0.075275774174028,54346.811287775,10769.759659556,64283.89470777,623.15
0.81922331180476,3.6991494446898,2.1037011053411,54344.715745728,27.322916272614,108664.73442743,0.082886297408422,54346.819446833,10899.606508308,70782.16465135,623.15
0.98406797416571,3.6990400765431,2.1311412683843,54344.697196878,30.069682364888,108661.5216725,0.091220185127503,54346.828338146,11041.778311582,77897.878357097,623.15
1.1818815689988,3.6989208764545,2.1609634643579,54344.676980529,33.055203478129,108658.02009838,0.10027875681338,54346.837943994,11196.291802354,85632.105732356,623.15
1.4192578827986,3.6987919295427,2.1931095210344,54344.655111118,36.273770789784,108654.23220547,0.1100447633447,54346.848220639,11362.845581157,93970.057623067,623.15
1.7041094593583,3.6986535776152,2.2274454810985,54344.631646615,39.712118540779,108650.16803459,0.12047802930479,54346.859092096,11540.74559406,102877.36803647,623.15
2.04593135123,3.6985064691655,2.2637462856149,54344.606697004,43.347896362795,108645.84663562,0.13151081285194,54346.87044329,11728.825775298,112296.13658467,623.15
2.456117621476,3.6983516068846,2.301680631902,54344.580432342,47.148159840039,108641.2974632,0.14304321920053,54346.882112974,11925.369593538,122141.01816616,623.15
2.9483411457712,3.6981903861535,2.340797675289,54344.553089285,51.068046334167,108636.56150749,0.15493917464636,54346.893886961,12128.041151586,132295.79258605,623.15
3.5390093749255,3.6980246151592,2.3805180045634,54344.524974502,55.049879161131,108631.69188507,0.16702369925343,54346.905492507,12333.838428762,142611.04385572,623.15
4.2478112499105,3.6978565038906,2.4201322374899,54344.496462807,59.023034879048,108626.75351569,0.17908249502474,54346.916595044,12539.086004062,152903.81639161,623.15
5.0983734998927,3.6976886057463,2.4588115377241,54344.467987255,62.90500394203,108621.82140696,0.19086515680739,54346.926798793,12739.489545943,162960.36272239,623.15
6.1190481998712,3.6975236927919,2.4956350808682,54344.440017989,66.604147606944,108616.97698998,0.20209353421524,54346.93565307,12930.27811828,172543.28547289,623.15
7.3438578398454,3.6973645457063,2.5296394862267,54344.413026613,70.024652834254,108612.30194885,0.21247676974376,54346.942666099,13106.460294073,181404.37342465,623.15
8.8136294078145,3.6972136452039,2.5598936485803,54344.387433854,73.07402865084,108607.86915605,0.22173405769642,54346.947327502,13263.211870642,189304.02143366,623.15
10.577355289377,3.6970727673961,2.5855981238582,54344.36354094,75.673059318723,108603.73078592,0.22962486805826,54346.949139064,13396.390802441,196037.01489719,623.15
12.693826347253,3.6969429107734,2.6064180873775,54344.341517214,77.774436863486,108599.91616972,0.23600550331204,54346.947935302,13504.26231009,201480.79878483,623.15
15.233591616703,3.6968221973006,2.6231138770836,54344.321044161,79.299557154097,108596.37013902,0.24063738943441,54346.944158038,13590.76582415,205431.74290975,623.15
18.281309940044,3.6967065011519,2.6371817636461,54344.301422037,80.276078524699,108592.97149524,0.24360449100493,54346.938603801,13663.653758441,207961.49836301,623.15
21.938571928053,3.6965897196137,2.6498886446585,54344.28161582,80.80324805085,108589.54096749,0.24520810431056,54346.931504465,13729.490108782,209327.17250361,623.15
26.327286313664,3.6964645175562,2.6624538572982,54344.260381469,81.015944836684,108585.86308193,0.24585772432401,54346.922835326,13794.592452987,209878.18026447,623.15
31.593743576396,3.696323313008,2.6760067327475,54344.236433077,81.04762408181,108581.7151136,0.24595855863618,54346.912439809,13864.812033648,209960.24784182,623.15
37.913492291676,3.6961591209963,2.6914920431032,54344.208585986,81.000645178257,108576.89187474,0.24582144962439,54346.900078029,13945.043863687,209838.54529538,623.15
45.497190750011,3.6959659063868,2.7096289116017,54344.175816633,80.933456325282,108571.21607966,0.24562396432988,54346.885445544,14039.013833767,209664.48728464,623.15
54.597628900013,3.6957383695984,2.7309554433086,54344.137226198,80.866422189904,108564.53204997,0.24542807807438,54346.868181641,14149.509950921,209490.83008201,623.15
65.518154680015,3.6954714180713,2.7559232009095,54344.091950973,80.798179074128,108556.6901887,0.24522981840673,54346.847874174,14278.871832489,209314.04092053,623.15
78.622785616018,3.6951596919611,2.7849809729116,54344.039081913,80.720952421939,108547.53304717,0.24500576226717,54346.824062886,14429.424722359,209113.97920105,623.15
94.348342739222,3.694797353339,2.8186130352335,54343.977628887,80.62827651057,108536.88913274,0.24473647002123,54346.796241922,14603.67773028,208873.89495995,623.15
113.21901128707,3.6943781086897,2.8573378759327,54343.906524487,80.515987081806,108524.57356962,0.24440949714451,54346.763862363,14804.317224477,208583.00035866,623.15
135.86381354448,3.6938953235872,2.901692123936,54343.82464348,80.380722878017,108510.39146757,0.24401484182242,54346.726335604,15034.123563876,208232.58779477,623.15
163.03757625338,3.6933421271269,2.9522172968547,54343.730820516,80.218852123538,108494.14098963,0.24354168160873,54346.683037813,15295.902436445,207813.24886764,623.15
195.64609150405,3.6927114793203,3.0094535416122,54343.623861551,80.026306696979,108475.61533192,0.2429778657406,54346.633315092,15592.452428402,207314.44478869,623.15
234.77630980486,3.6919962080747,3.0739386106806,54343.502550116,79.798787028915,108454.60380992,0.24231053354029,54346.576488727,15926.559719939,206725.03718499,623.15
281.73257176583,3.6911890217125,3.1462105319003,54343.365649435,79.531972218287,108430.89222622,0.24152674940749,54346.511859967,16301.011917969,206033.83242234,623.15
338.080086119,3.6902825012481,3.2268130338197,54343.211901103,79.221678663521,108404.26264366,0.24061398216754,54346.438714137,16718.626165676,205229.99255164,623.15
405.6971033428,3.6892690827004,3.3163021220511,54343.040022078,78.863986222065,108374.49286577,0.23956048619412,54346.3563242,17182.28321564,204303.36213514,623.15
486.83752401136,3.68814104491,3.4152515743505,54342.848702599,78.455328232641,108341.35607886,0.23835557269584,54346.263954173,17694.955900718,203244.70145614,623.15
584.20602881363,3.6868905158417,3.5242555484108,54342.636607231,77.992536948773,108304.62103716,0.2369897450772,54346.160862779,18259.722645425,202045.80421811,623.15
701.04823457636,3.6855095010627,3.6439278166425,54342.402379676,77.472851016286,108264.05289942,0.23545471837728,54346.046307493,18879.763501215,200699.51691579,623.15
841.25888149163,3.6839899280035,3.7748985175596,54342.144650242,76.893903718789,108219.41452906,0.23374337986282,54345.919548759,19558.343314901,199199.70838412,623.15
1009.51165779,3.6823236949684,3.9178099251115,54341.86204411,76.253711035289,108170.46793391,0.23184974902242,54345.779854036,20298.789808896,197541.23886058,623.15
1211.4149893479,3.6805027165188,4.0733123799843,54341.553188981,75.550669874574,108116.97559937,0.22976896880048,54345.626501361,21104.472500647,195719.95541127,623.15
1453.6989872175,3.6785189632075,4.2420607036966,54341.216721734,74.783566860152,108058.7016556,0.22749732937168,54345.458782438,21978.784123496,193732.71468888,623.15
1744.439784661,3.6763644984621,4.424710811725,54340.851294593,73.951592903142,107995.41296102,0.2250323099941,54345.276005405,22925.123078757,191577.420685,623.15
2093.3287415933,3.6740315164798,4.6219161298619,54340.455581428,73.05435908742,107926.8802155,0.22237262531022,54345.077497558,23946.874868296,189253.06588182,623.15
2511.9954899119,3.671512383632,4.8343236027222,54340.028284626,72.091911723817,107852.87917662,0.21951826959435,54344.862608228,25047.39141398,186759.77025118,623.15
3014.3955878943,3.6687987644471,5.0626743512643,54339.56798665,71.072240383165,107773.16498489,0.2164934130737,54344.630661001,26230.512580132,184118.23140503,623.15
3617.2757054731,3.6658844587833,5.3074616672319,54339.073630974,69.982300446468,107687.55550744,0.21325806048267,54344.381092641,27498.794188911,181294.65623137,623.15
4340.7318465678,3.6627625427545,5.5693115681359,54338.544036851,68.829917972777,107595.84735094,0.20983575745799,54344.113348419,28855.479735564,178309.31875201,623.15
5208.8792158813,3.6594265481899,5.8488010431352,54337.978098932,67.617162406108,107497.85050901,0.20623247378438,54343.826899976,30303.558691729,175167.58002451,623.15
6250.6560590576,3.6558704327807,6.1464761623172,54337.37478167,66.346368354329,107393.38748519,0.20245494308932,54343.521257833,31845.860332471,171875.48803428,623.15
7500.7882708691,3.6520886576578,6.462846050415,54336.733131797,65.020354836795,107282.29557189,0.19851133332903,54343.195977847,33485.022513157,168440.34567277,623.15
9000.9469250429,3.6480762489812,6.798376966303,54336.052287906,63.642392664697,107164.42865957,0.19441115137848,54342.850664873,35223.460994397,164870.62623376,623.15
10801.137310052,3.6438288536878,7.1534815343979,54335.331488823,62.216182431051,107039.65887439,0.19016518103875,54342.484970358,37063.313648232,161175.91639465,623.15
12961.365772062,3.639342792404,7.5284843624358,54334.570081195,60.745824720002,106907.87813254,0.18578539823267,54342.098565557,39006.26231843,157366.83904136,623.15
15553.639926474,3.6346151085074,7.9235101422424,54333.76752607,59.235782561307,106768.99958147,0.1812848633565,54341.691036212,41052.953052963,153454.95600367,623.15
18664.368911769,3.6296436123848,8.3381816188396,54332.923404213,57.690836840499,106622.95889997,0.17667759280843,54341.261585832,43201.431234419,149452.65254175,623.15
22397.243694123,3.6244269204248,8.7709706663728,54332.037419956,56.11603555217,106469.71544363,0.1719784122145,54340.808390622,45443.779402246,145373.00588282,623.15
26876.693432947,3.6189644880938,9.2181002833103,54331.109403341,54.51663789726,106309.25321645,0.16720279420173,54340.327503625,47760.428317083,141229.64040078,623.15
32252.033119537,3.6132566313816,9.6721122604441,54330.139309411,52.898052941847,106141.58150081,0.16236667972535,54339.811421671,50112.735823246,137036.56870692,623.15
38702.440743444,3.6073045010558,10.120528811378,54329.127208393,51.265764862673,105966.73410122,0.15748625891461,54339.247737204,52436.052545656,132807.99799266,623.15
46442.929892133,3.6011098544392,10.545240012417,54328.073240186,49.625208058837,105784.76264006,0.152577601176,54338.618480198,54636.5481195,128558.0064965,623.15
55731.51687056,3.5946741280413,10.923156673575,54326.977448535,47.981481288297,105595.70931569,0.1476558015467,54337.900605209,56594.593817676,124299.80295214,623.15
66877.821244672,3.5879956552166,11.228301190919,54325.839298383,46.338668751384,105399.52516938,0.14273294470136,54337.067599573,58175.59558583,120043.96780194,623.15
80253.386493606,3.581063184444,11.435077881036,54324.65656274,44.698463877826,105195.87968095,0.13781396677749,54336.091640621,59246.938159947,115794.88800885,623.15
96304.064792327,3.5738441373824,11.522152103643,54323.423313012,43.057990978431,104983.81584209,0.13289008690282,54334.945465116,59698.083411057,111545.11387375,623.15
115564.87875079,3.5662684985883,11.47617565576,54322.127161755,41.407355967743,104761.27690713,0.12793138694366,54333.603337411,59459.872198782,107269.01398968,623.15
138677.85550095,3.5582135747942,11.29445644056,54320.746642923,39.728289966642,104524.65868773,0.1228826286393,54332.041099363,58518.356345769,102919.2613877,623.15
166413.42760114,3.5494982065354,10.985671457872,54319.25018104,37.995560841594,104268.6395159,0.11766735897984,54330.235852498,56918.492753725,98430.490240373,623.15
199696.11412137,3.5398935841845,10.568107519503,54317.597857775,36.181968186858,103986.49797157,0.11220280424847,54328.165965295,54755.028272616,93732.235756218,623.15
239635.33794564,3.5291508489827,10.065774895025,54315.74600232,34.265889663091,103670.92367938,0.10642251746591,54325.811777215,52152.363887832,88768.483563699,623.15
287562.40653477,3.5170371899331,9.5037262119235,54313.653196059,32.238654948277,103315.0776766,0.10029864380732,54323.156922271,49240.301205179,83516.772511365,623.15
345074.88884173,3.5033681254722,8.9043549314381,54311.285599847,30.10877745882,102913.54070662,0.093854880615499,54320.189954779,46134.864271632,77999.157274333,623.15
414089.86761007,3.4880268019906,8.2858993921873,54308.620044332,27.901676151452,102462.88012455,0.087165979347924,54316.905943724,42930.54878993,72281.487660239,623.15
496907.84213209,3.4709700976842,7.6630029594248,54305.644841351,25.655133452108,101961.82920153,0.080344373577352,54313.30784431,39703.224340034,66461.642016579,623.15
596289.4115585,3.4522259314016,7.0482560212904,54302.359055212,23.413868037709,101411.20807048,0.073524179752789,54309.407311233,36518.123704378,60655.467594839,623.15
715547.2948702,3.4318904497764,6.4532205670256,54298.771698109,21.223587182075,100813.84109645,0.06684342714498,54305.224918676,33435.151368853,54981.37268457,623.15
858656.75484424,3.4101273931125,5.8884358852273,54294.901235098,19.126602937149,100174.53824912,0.060430914644614,54300.789670983,30508.913046359,49548.969985872,623.15
1030388.1068131,3.3871681790857,5.3627330569283,54290.775149222,17.158635860066,99500.09756155,0.054396505937863,54296.137882279,27785.163957567,44450.796412865,623.15
1236465.7291757,3.3633095144355,4.8825430979214,54286.429027616,15.346789515472,98799.23497225,0.048824830676937,54291.311570714,25297.224207415,39757.065882552,623.15
1483758.8760109,3.3389069614899,4.4516266855435,54281.904907884,13.708704659028,98082.395337944,0.043772453326436,54286.356534569,23064.578457044,35513.478160625,623.15
1780510.652213,3.3143649880373,4.0712537426071,54277.248986489,12.25286583096,97361.46014259,0.039268484323253,54281.320240232,21093.806376406,31742.013116191,623.15
2136612.7836556,3.2901246525216,3.7406572851847,54272.508905231,10.979832276762,96649.385742613,0.035318004451783,54276.249562516,19380.934101064,28444.11951871,623.15
2563935.3413868,3.2666493134912,3.4575822954257,54267.730713249,9.883998270072,95959.783573391,0.031907151234647,54271.188295545,17914.278028639,25605.275292927,623.15
3076722.4106641,3.2444075987071,3.2188121442935,54262.955417775,8.9554676591694,95306.419856582,0.029008628213468,54266.174229919,16677.172297856,23199.843679077,623.15
3692066.8937969,3.2238520300296,3.0206055317478,54258.214902823,8.1817205163576,94702.587693337,0.026586656047519,54261.235508355,15650.232644401,21195.390819266,623.15
4430480.2735563,3.2053915144287,2.8590099237318,54253.526962799,7.5488775097774,94160.298971252,0.024600756597305,54256.385972722,14812.980367272,19555.961212145,623.15
5316576.3292676,3.1893567213362,2.7300415981566,54248.889317081,7.0424801515069,93689.267303284,0.023008097567508,54251.619358679,14144.775175367,18244.09900701,623.15
6379891.5961211,3.1759596232985,2.6297409568828,54244.272810555,6.6477924781914,93295.719510167,0.021764394764364,54246.902551512,13625.101767562,17221.629531214,623.15
7655869.9163453,3.1652524836526,2.5541287980286,54239.61461344,6.3497090006584,92981.190858786,0.020823621944782,54242.168742238,13233.343272659,16449.420826401,623.15
9187043.9006144,3.1570968770162,2.4991110368919,54234.813050617,6.1324495163679,92741.615020478,0.02013708737285,54237.312161653,12948.287593487,15886.593036143,623.15
