time,scaled_flux_surface_left_sieverts,scaled_flux_surface_right_sieverts,scaled_implanted_deuterium,scaled_mobile_deuterium,scaled_trapped_deuterium_1,scaled_trapped_deuterium_2,scaled_trapped_deuterium_3,scaled_trapped_deuterium_4,scaled_trapped_deuterium_5,scaled_trapped_deuterium_intrinsic,temperature
0,0,-0,0,0,0,0,0,0,0,0,370
1e-08,1.5181668592477e+19,342.54263379986,5.3224067119177e+19,380824288693.79,981851118.38434,777303844.68445,531844010.35429,728649100.88473,222642780.82589,494259.38239703,370
2.1e-08,2.4243110802666e+19,307.83691633189,5.3224067119177e+19,737436193421.19,2726054409.7886,2158144952.0219,1476644060.3969,2022721822.8843,618053890.32575,1372308.9253253,370
3.31e-08,2.9496581935282e+19,294.71395786623,5.3224067119177e+19,1070272944996.8,5587510938.3128,4423492127.2073,3026652846.062,4138112101.9189,1264423142.253,2812913.8951648,370
4.641e-08,3.2672233538294e+19,289.75199988602,5.3224067119177e+19,1393178766074.3,9834936932.8742,7786072698.3944,5327415723.431,7266280314.1332,2220252318.2074,4951481.7217153,370
6.1051e-08,3.4756670721776e+19,287.87593863002,5.3224067119177e+19,1718210439792.7,15704135492.567,12432534789.819,8529688366.9001,11607696729.088,3546796222.7768,7928262.8962354,370
7.71561e-08,3.6213032354902e+19,287.16675095921,5.3224067119177e+19,2052846679264.8,23530415570.831,18628344855.428,12777666954.897,17400350300.879,5316773703.0464,11907192.980118,370
9.487171e-08,3.7249142652931e+19,286.8988075675,5.3224067119177e+19,2401337404066.1,33705777528.974,26683841632.276,18292627497.996,24931949572.056,7618095702.5727,17084441.93022,370
1.14358881e-07,3.798015685585e+19,286.79773165673,5.3224067119177e+19,2766351509509.2,46696014055.517,36967779757.864,25330255762.373,34548233984.568,10556404828.618,23694713.338036,370
1.357947691e-07,3.8494277888769e+19,286.75977660014,5.3224067119177e+19,3149829506304,63054993853.351,49918639097.014,34191842531.697,46661636365.63,14257722222.831,32017779.522193,370
1.5937424601e-07,3.8867422758426e+19,286.74571557206,5.3224067119177e+19,3553195968280.6,83438952755.755,66055940252.696,45233332349.262,61761058166.782,18871434439.85,42385521.109172,370
1.85311670611e-07,3.9160732946599e+19,286.74071855736,5.3224067119177e+19,3977295829981.4,108621185716.94,85991875089.439,58873776126.362,80422449598.849,24573526266.315,55189307.341406,370
2.138428376721e-07,3.9417496195459e+19,286.73918085761,5.3224067119177e+19,4422307006013.5,139507067684.35,110443198792.36,75603654418.516,103319855157.51,31569955742.572,70887577.379143,370
2.4522712143931e-07,3.9664110825456e+19,286.7389863915,5.3224067119177e+19,4887712537147.3,177149373669.65,140243358284.74,95993246513.486,131236777345.26,40100126411.052,90013578.413323,370
2.7974983358324e-07,3.9914015666763e+19,286.73933853222,5.3224067119177e+19,5372319605467.7,222763877664.17,176354841280.25,120701106511.35,165077793697.97,50440436963.267,113183239.78855,370
3.1772481694157e-07,4.0172290844867e+19,286.73993992402,5.3224067119177e+19,5874291881515.6,277745091766.56,219881636545.98,150482598899.7,205880298767.14,62907869067.737,141103113.61161,370
3.5949729863572e-07,4.043943360848e+19,286.74068238508,5.3224067119177e+19,6391175011570.1,343259886602.83,272081548217.49,186198327899.44,254828295495.36,77864201401.361,174578223.8586,370
4.0544702849929e-07,4.0713841664642e+19,286.7415296906,5.3224067119177e+19,6919912190332.7,421301909547.49,333991123046.38,228822182939.12,313260500511.32,95718486267.349,214519575.13379,370
4.5599173134922e-07,4.0993147975041e+19,286.74247329259,5.3224067119177e+19,7456857310971,513953274596.97,407387880113.87,279448633776.81,382678734446.82,116929613303.2,261950985.92007,370
5.1159090448415e-07,4.1274771743154e+19,286.74351056041,5.3224067119177e+19,7997797388598.1,623483447002.78,494117325791.17,338943963646.77,464761839669.9,142010562121.36,318014867.19936,370
5.7274999493256e-07,4.1556051192473e+19,286.74465685553,5.3224067119177e+19,8537996149183.5,752379453253.8,596166826166.59,408825586485.96,561365547756.23,171528361814.4,383976551.37296,370
6.4002499442582e-07,4.18342265998e+19,286.74591974885,5.3224067119177e+19,9072268589227.1,903366715326.62,715700990834.07,490634157507.3,674529468334.18,206106226435.44,461226843.29382,370
7.140274938684e-07,4.2106421970329e+19,286.74730969823,5.3224067119177e+19,9595093065485.8,1079412892328.8,855071857442.32,586001505265.42,806476685381.29,246423431644.28,551282564.99449,370
7.9543024325524e-07,4.2369677901311e+19,286.74883892164,5.3224067119177e+19,10100763770716,1283725063653.9,1016819362530.2,696674001978.09,959610368156.14,293214279158.82,655785062.6032,370
8.8497326758076e-07,4.2621035137144e+19,286.75051303001,5.3224067119177e+19,10583582523405,1519742008342.9,1203666250262.9,824517800887.55,1136507468644.5,347266170974.7,776491338.31411,370
9.8347059433884e-07,4.2857650959255e+19,286.75236043781,5.3224067119177e+19,11038084508720,1791123127540.6,1418509689374.8,971516393877.12,1339910166567.7,409416995340.14,915278305.62324,370
1.0918176537727e-06,4.3076931883693e+19,286.7543947487,5.3224067119177e+19,11459287888944,2101735936832.3,1664411517057.6,1139765183025.6,1572716334892.8,480552213439.47,1074133686.2787,370
1.21099941915e-06,4.3276669932128e+19,286.75663333544,5.3224067119177e+19,11842952070806,2455644762043,1944589347589.8,1331465868384.5,1837970930166.5,561602228661.99,1255151406.5415,370
1.342099361065e-06,4.3455171675831e+19,286.75909607235,5.3224067119177e+19,12185824550327,2857104026051.7,2262411269349,1548922997112.7,2138860805291.6,653540801616.86,1460530174.218,370
1.4863092971715e-06,4.3611368365858e+19,286.76179206708,5.3224067119177e+19,12485852486628,3310560037911.4,2621397281169.3,1794545014402.2,2478715900295.6,757385413979.22,1692576251.4097,370
1.6449402268886e-06,4.3744894406533e+19,286.7647671017,5.3224067119177e+19,12742333611660,3820665544835.1,3025230809084.2,2070852168547.1,2861019964261.6,874200544635.49,1953713172.4712,370
1.8194342495775e-06,4.3856122372266e+19,286.76804308733,5.3224067119177e+19,12955984091240,4392311015182.4,3477783474575.3,2380493467085.3,3289433809326.8,1005104775072.1,2245004585.8107,370
2.0113776745353e-06,4.3946143776694e+19,286.77164799637,5.3224067119177e+19,13128899681387,5030370519883.8,3983155473498,2726274308852,3767840381573.7,1151284561036.4,2569889496.408,370
2.2225154419888e-06,4.4016693692992e+19,286.77561382513,5.3224067119177e+19,13264413300814,5740522406041.1,4545732905652,3111195709932.5,4300382334857.3,1314005713428.6,2931532564.6958,370
2.4547669861877e-06,4.4070021550901e+19,286.77995522839,5.3224067119177e+19,13366845891732,6528815503392.5,5169939640245.9,3538504853195,4891551887184.9,1494640854417.6,3333166278.2211,370
2.7102436848064e-06,4.4108718698352e+19,286.78474591661,5.3224067119177e+19,13441175040417,7401811382821.4,5861114834216.5,4011755454586.6,5546252844845.4,1694688369258.3,3778260190.7254,370
2.9912680532871e-06,4.4135521424689e+19,286.79002115545,5.3224067119177e+19,13492656703312,8366761504205.5,6625053896038,4534579640363,6269916625362.7,1915807857749.7,4270639328.5408,370
3.3003948586158e-06,4.4153113064688e+19,286.79582596698,5.3224067119177e+19,13526445118585,9431716621988.9,7468151011630.7,5111484354107.8,7068577785921,2159843212364.8,4814542197.2299,370
3.6404343444774e-06,4.4163949811127e+19,286.80221184845,5.3224067119177e+19,13547258221243,10605680665993,8397542108839.5,5747401975538.1,7948987102728.8,2428857170278.2,5414714124.827,370
4.0144777789251e-06,4.4170131284471e+19,286.80920236439,5.3224067119177e+19,13559129025764,11898736209008,9421212180332.7,6447814790175.2,8918704745155.9,2725159783242.1,6076474237.5657,370
4.4259255568176e-06,4.4173328939769e+19,286.8169161686,5.3224067119177e+19,13565268107970,13322162410094,10548091679098,7218840242982.4,9986188381909,3051335338916.6,6805778544.3995,370
4.8785181124994e-06,4.4174774630884e+19,286.82540999977,5.3224067119177e+19,13568041634187,14888545212769,11788144898699,8067298706433.2,11160875692670,3410267572760.3,7609278692.8611,370
5.3763699237493e-06,4.4175300707123e+19,286.83475629367,5.3224067119177e+19,13569048384712,16611883135041,13152454159787,9000773841130.2,12453263664410,3805163897458.5,8494379127.8241,370
5.9240069161242e-06,4.4175414782146e+19,286.84503789935,5.3224067119177e+19,13569263371035,18507694647204,14653304979166,10027671912736,13874989106528,4239580004772.3,9469295179.6478,370
6.5264076077367e-06,4.4175388825632e+19,286.8562926753,5.3224067119177e+19,13569208965755,20593134277665,16304278048678,11157285119425,15438915729770,4717446472985.3,10543115467.169,370
7.1890483685103e-06,4.4175344061479e+19,286.86871156494,5.3224067119177e+19,13569117979327,22887124191928,18120353425455,12399863029126,17159232839680,5243098923235.5,11725872173.364,370
7.9179532053614e-06,4.4175319075684e+19,286.88238579546,5.3224067119177e+19,13569064483829,25410505548788,20118030364449,13766694626605,19051569640339,5821312945659,13028688101.868,370
8.7197485258975e-06,4.4175316095227e+19,286.8974318384,5.3224067119177e+19,13569052706933,28186216269121,22315468055348,15270204628483,21133126815430,6457344304714.8,14463709275.064,370
9.6017233784872e-06,4.4175326994008e+19,286.91398289554,5.3224067119177e+19,13569066984694,31239490468857,24732643508624,16924061518536,23422827352075,7156975024245,16044320687.037,370
1.0571895716336e-05,4.4175344474393e+19,286.93209969882,5.3224067119177e+19,13569093239029,34598084558921,27391530551472,18743300021797,25941486040273,7926565178972.3,17785250713.234,370
1.163908528797e-05,4.4175364735378e+19,286.95208937666,5.3224067119177e+19,13569124102536,38292528693893,30316298891670,20744457308181,28711998067904,8773110520748.3,19702694847.038,370
1.2812993816767e-05,4.4175386640019e+19,286.97409845986,5.3224067119177e+19,13569157317545,42356146254345,33533533943733,22945723396758,31759577550109,9704315362533.4,21814454166.86,370
1.4104293198443e-05,4.4175410286551e+19,286.99831404269,5.3224067119177e+19,13569192992773,46826011847619,37072478733450,25367106672985,35111912941979,10728640065605,24140088590.847,370
1.5524722518288e-05,4.417543608722e+19,287.02495005869,5.3224067119177e+19,13569231830977,51742837838190,40965079947961,28030632888922,38799494575807,11855401120386,26704995784.443,370
1.7087194770116e-05,4.4175464419996e+19,287.05410369685,5.3224067119177e+19,13569274461231,57151322411418,45246840099189,30960502360569,42855829122695,13094836676379,29531097243.734,370
1.8805914247128e-05,4.4175495593293e+19,287.08626858592,5.3224067119177e+19,13569321368573,63100629645325,49956724780540,34183341417646,47317783283324,14458211558794,32643784079.617,370
2.0696505671841e-05,4.4175529894688e+19,287.12167970152,5.3224067119177e+19,13569372987226,69644832996814,55137558802471,37728469363101,52225910362768,15957917055290,36071456097.898,370
2.2776156239025e-05,4.4175567630594e+19,287.16063710687,5.3224067119177e+19,13569429776576,76843456421580,60836471574449,41627856593616,57624852792021,17607593908673,39859442516.298,370
2.5063771862927e-05,4.4175609140781e+19,287.20348381875,5.3224067119177e+19,13569492246168,84761914000929,67105251643431,45917071485021,63563670660509,19422232701822,44036009058.258,370
2.758014904922e-05,4.4175654801708e+19,287.25060261732,5.3224067119177e+19,13569560962523,93472173084016,74000874075709,50635147686572,70096339399599,21418325927655,48636999161.106,370
3.0348163954142e-05,4.417570502869e+19,287.30216487663,5.3224067119177e+19,13569636550696,1.0305340113697e+14,81586013466790,55824986990662,77282234690923,23614016155560,53703562551.916,370
3.3392980349556e-05,4.4175760278596e+19,287.35904267755,5.3224067119177e+19,13569719698463,1.135926719139e+14,89929603414772,61533761741074,85186663676468,26029258345587,59332511033.487,370
3.6742278384512e-05,4.4175821053692e+19,287.42165158901,5.3224067119177e+19,13569811161690,1.251857807464e+14,99107481932075,67813363845745,93881472194195,28686005392671,65551759878.382,370
4.0426506222963e-05,4.417588790644e+19,287.49051605986,5.3224067119177e+19,13569911772122,1.3793809645864e+14,1.0920306603684e+14,74720869143225,1.0344568673457e+14,31608404280006,72409544208.777,370
4.4479156845259e-05,4.4175961444716e+19,287.56623868747,5.3224067119177e+19,13570022444671,1.5196558305188e+14,1.2030816059611e+14,82319091881930,1.1396628036449e+14,34823030111371,79643909544.845,370
4.8937072529785e-05,4.4176042337113e+19,287.64949110491,5.3224067119177e+19,13570144185740,1.6739569735036e+14,1.3252366896762e+14,90677071349623,1.2553884583359e+14,38359091782485,87484330822.406,370
5.3840779782764e-05,4.4176131319071e+19,287.74057004728,5.3224067119177e+19,13570278102385,1.8436865914002e+14,1.4596059852772e+14,99870760017795,1.3826854812769e+14,42248723039017,96063881537.013,370
5.923485776104e-05,4.4176229199595e+19,287.84101079187,5.3224067119177e+19,13570425412425,2.0303871248027e+14,1.6074105920166e+14,1.0998370681032e+14,1.5227107043761e+14,46527271522603,105483812803,370
6.5168343537144e-05,4.4176336868587e+19,287.95153300451,5.3224067119177e+19,13570587455791,2.2357552155938e+14,1.7699936855926e+14,1.2110781321557e+14,1.6767366104706e+14,51233618653268,115838435708.32,370
7.1695177890858e-05,4.4176455304949e+19,288.07305639839,5.3224067119177e+19,13570765705511,2.4616570917163e+14,1.9488326970534e+14,1.3334416663393e+14,1.8461628717123e+14,56410532191210,127225039435.82,370
7.8874695679944e-05,4.4176585585511e+19,288.20663072464,5.3224067119177e+19,13570961783008,2.7101454987914e+14,2.1455527177544e+14,1.4680395752184e+14,2.0325290486249e+14,62105054263537,139748201648.17,370
8.6772165247939e-05,4.4176728894717e+19,288.35342488154,5.3224067119177e+19,13571177471645,2.9834783261088e+14,2.3619412445305e+14,1.6160948830301e+14,2.23752855963e+14,68368928210916,153522034630.85,370
9.5459381772733e-05,4.4176886535558e+19,288.5139430284,5.3224067119177e+19,13571414733153,3.2841390922008e+14,2.599964397581e+14,1.7789528298927e+14,2.4630240450521e+14,75259068043259,168671711463.37,370
0.00010501531995001,4.4177059941303e+19,288.69086646505,5.3224067119177e+19,13571675725505,3.6148594733755e+14,2.8617847557123e+14,1.9580930749843e+14,2.7110642638605e+14,82838074729071,185334787768.31,370
0.00011552685194501,4.4177250688589e+19,288.88544404971,5.3224067119177e+19,13571962822856,3.9786440786143e+14,3.1497809697848e+14,2.1551431162618e+14,2.9839026748625e+14,91174803954131,203662520095.98,370
0.00012708953713951,4.4177460511729e+19,289.09925330565,5.3224067119177e+19,13572278636731,4.3787976933827e+14,3.466569330829e+14,2.3718930475906e+14,3.2840178696911e+14,1.0034499046278e+14,223821264463.87,370
0.00013980849085346,4.4177691318517e+19,289.33410225419,5.3224067119177e+19,13572626040144,4.8189552376209e+14,3.815027486771e+14,2.6103117859755e+14,3.6141360413261e+14,1.1043193459608e+14,245993994722.85,370
0.0001537993399388,4.4177945207566e+19,289.5919981428,5.3224067119177e+19,13573008193698,5.3031147067448e+14,4.1983205209902e+14,2.8725649147863e+14,3.9772556901381e+14,1.2152725719866e+14,270381964656.33,370
0.00016918927393268,4.4178224487404e+19,289.87376797387,5.3224067119177e+19,13573428574404,5.8356733918126e+14,4.6199296266745e+14,3.1610343030512e+14,4.376674789112e+14,1.3373172966731e+14,297206532613.63,370
0.00018611820132595,4.4178531697483e+19,290.18405751963,5.3224067119177e+19,13573891007404,6.4214677032358e+14,5.0836836341131e+14,3.4783396767646e+14,4.8160206518544e+14,1.4715618658444e+14,326711166522.85,370
0.00020474002145855,4.417886963127e+19,290.52495445623,5.3224067119177e+19,13574399700858,7.0658169547257e+14,5.5937936731151e+14,3.8273623352775e+14,5.2992827707235e+14,1.6192252910544e+14,359163647800.95,370
0.0002252240236044,4.4179241361683e+19,290.89913392363,5.3224067119177e+19,13574959284367,7.7745714985638e+14,6.1548912804406e+14,4.2112712248043e+14,5.8308489186603e+14,1.7816482807018e+14,394858494089.11,370
0.00024775642596484,4.4179650269043e+19,291.30963420148,5.3224067119177e+19,13575574851242,8.5541656420378e+14,6.7720702921785e+14,4.6335516016283e+14,6.4155448367655e+14,1.9603053667895e+14,434119622515.3,370
0.00027254206856133,4.4180100071852e+19,291.75981432419,5.3224067119177e+19,13576252005039,9.4116758160114e+14,7.450932894234e+14,5.0980365398731e+14,7.0586778613701e+14,2.1568182354186e+14,477303277243.03,370
0.00029980627541746,4.4180594860625e+19,292.25093715994,5.3224067119177e+19,13576996910762,1.0354884512234e+15,8.1976402398276e+14,5.6089415661863e+14,7.7660848775405e+14,2.3729703792485e+14,524801247335.99,370
0.00032979690295921,4.4181139135135e+19,292.79088815131,5.3224067119177e+19,13577816351247,1.1392350558864e+15,9.0189680847186e+14,6.1709027233565e+14,8.5441850244523e+14,2.610723201916e+14,577044403448.56,370
0.00036278659325513,4.4181737845392e+19,293.38306432241,5.3224067119177e+19,13578717789224,1.2533486349676e+15,9.9223679276602e+14,6.7890184055657e+14,9.4000376210113e+14,2.8722337175312e+14,634506584595.38,370
0.00039907525258064,4.4182396436697e+19,294.03177342517,5.3224067119177e+19,13579709435640,1.3788642715275e+15,1.0916034200412e+15,7.4688953297912e+14,1.0341405818619e+15,3.1598740001336e+14,697708869427.89,370
0.0004389927778387,4.4183120899248e+19,294.74191128441,5.3224067119177e+19,13580800324885,1.5169202177294e+15,1.2008978096775e+15,8.21669904922e+14,1.1376826542959e+15,3.4762525547932e+14,767224269149.94,370
0.00048290205562257,4.4183917822716e+19,295.51884055235,5.3224067119177e+19,13582000397648,1.6687681406607e+15,1.321110868308e+15,9.0392094513312e+14,1.2515687337691e+15,3.8242377976277e+14,843682883500.79,370
0.00053120226118483,4.4184794456258e+19,296.36419693115,5.3224067119177e+19,13583320592117,1.8357843773369e+15,1.4533322004366e+15,9.9438817250203e+14,1.3768310780707e+15,4.2069838496603e+14,927777564640.45,370
0.00058433248730331,4.4185758774602e+19,297.29096213245,5.3224067119177e+19,13584772944473,2.019482297445e+15,1.5987598956343e+15,1.093891332571e+15,1.5146047205357e+15,4.6279588683035e+14,1020270138008.5,370
0.00064277573603365,4.4186819550732e+19,298.30412882865,5.3224067119177e+19,13586370699554,2.2215258802779e+15,1.7587112772405e+15,1.2033317518216e+15,1.6661376529394e+15,5.0909761617593e+14,1121998233928.9,370
0.00070706330963701,4.4187986435878e+19,299.41017730485,5.3224067119177e+19,13588128432783,2.443744622819e+15,1.9346347047429e+15,1.323700413063e+15,1.8328020068476e+15,5.6002283542567e+14,1233882788681.3,370
0.00077777964060071,4.4189270047532e+19,300.61633838494,5.3224067119177e+19,13590062184493,2.6881499064499e+15,2.1281225310748e+15,1.4560868209423e+15,2.0161063289919e+15,6.160324894142e+14,1356936279020.9,370
0.00085556760466078,4.419068206633e+19,301.93039648794,5.3224067119177e+19,13592189607982,2.9569529614261e+15,2.3409253248527e+15,1.6016887329474e+15,2.2177090550289e+15,6.7763332236995e+14,1492271759998.9,370
0.00094113436512686,4.4192235342651e+19,303.35352841753,5.3224067119177e+19,13594530132669,3.2525845808224e+15,2.5749674775405e+15,1.7618228379918e+15,2.4394332953508e+15,7.4538239580163e+14,1641112782136.4,370
0.0010352578016395,4.4193944013938e+19,304.90583197794,5.3224067119177e+19,13597105143971,3.577716744163e+15,2.8323643227179e+15,1.9379364695991e+15,2.6832830557821e+15,8.1989204482231e+14,1804816631911.7,370
0.0011387935818035,4.4195823633844e+19,306.59339795958,5.3224067119177e+19,13599938181644,3.9352863508253e+15,3.1154409256891e+15,2.13162046195e+15,2.9514610323344e+15,9.018353154355e+14,1984854758868,370
0.0012526829399839,4.4197891314356e+19,308.42436047962,5.3224067119177e+19,13603055158518,4.3285212221157e+15,3.4267526691148e+15,2.3446232347907e+15,3.2463881180589e+15,9.9195192496244e+14,2182849309125.7,370
0.0013779612339822,4.4200165882271e+19,310.4075582776,5.3224067119177e+19,13606484601821,4.7609686126713e+15,3.7691078254435e+15,2.5788662377286e+15,3.5707247870937e+15,1.0910547960564e+15,2400584791503,370
