time,average,flux_surface_left,flux_surface_right,scaled_flux_surface_left,scaled_flux_surface_right,temperature
0,0,0,0,-0,0,370
1,28.217837323484,44422082.900171,-6.7523923401933e-10,-4.4422082900171e+19,-675.23923401933,370
2,31.053094237878,44452541.760205,2.8348991207721e-09,-4.4452541760205e+19,2834.8991207721,370
3.1,33.263793527738,44443395.167413,7.8414079687261e-10,-4.4443395167413e+19,784.14079687261,370
4.31,35.766306606715,44442977.958171,-2.1383856343998e-09,-4.4442977958171e+19,-2138.3856343998,370
5.641,38.40259785331,44443109.134611,-2.6206940186003e-09,-4.4443109134611e+19,-2620.6940186003,370
7.1051,41.161130844652,44443190.187391,-6.2644617565587e-10,-4.4443190187392e+19,-626.44617565587,370
8.71561,44.043514699155,44443264.775788,1.8050957343946e-09,-4.4443264775788e+19,1805.0957343946,370
10.487171,47.051222702764,44443337.330065,2.5975111897023e-09,-4.4443337330065e+19,2597.5111897023,370
12.4358881,50.186237979456,44443407.306663,1.2144108437811e-09,-4.4443407306663e+19,1214.4108437811,370
14.57947691,53.451230914896,44443474.374521,-1.0907872783946e-09,-4.4443474374521e+19,-1090.7872783946,370
16.937424601,56.849651474204,44443538.314784,-2.3745058820671e-09,-4.4443538314784e+19,-2374.5058820671,370
19.5311670611,60.385806235875,44443598.992455,-1.5994241694644e-09,-4.4443598992455e+19,-1599.4241694644,370
22.38428376721,64.06490453277,44443656.353246,5.0084115476853e-10,-4.4443656353246e+19,500.84115476853,370
25.522712143931,67.893068535669,44443710.415871,2.0335508370414e-09,-4.4443710415871e+19,2033.5508370414,370
28.974983358324,71.877309663384,44443761.260443,1.6208083528407e-09,-4.4443761260443e+19,1620.8083528407,370
32.772481694157,76.025478736052,44443809.014509,-2.8871208471987e-10,-4.4443809014509e+19,-288.71208471987,370
36.949729863572,80.346200356277,44443853.83833,-1.7779941999135e-09,-4.444385383833e+19,-1777.9941999135,370
41.544702849929,84.848802913639,44443895.910979,-1.3458597395147e-09,-4.4443895910979e+19,-1345.8597395147,370
46.599173134922,89.543254424818,44443935.41847,4.7518456669498e-10,-4.444393541847e+19,475.18456669498,370
52.159090448415,94.440111633523,44443972.544653,1.611333216396e-09,-4.4443972544653e+19,1611.333216396,370
58.274999493256,99.550486231613,44444007.465034,7.8307991603212e-10,-4.4444007465034e+19,783.07991603212,370
65.002499442582,104.88602865128,44444040.343258,-9.0658894829915e-10,-4.4444040343258e+19,-906.58894829915,370
72.40274938684,110.4589273544,44444071.329661,-1.2756359822894e-09,-4.4444071329661e+19,-1275.6359822894,370
80.543024325524,116.28192025318,44444100.561229,7.9416696660428e-11,-4.4444100561229e+19,79.416696660428,370
89.497326758076,122.36831475151,44444128.162362,1.1666886532025e-09,-4.4444128162362e+19,1166.6886532025,370
99.347059433884,128.73201351706,44444154.245985,4.3102604054703e-10,-4.4444154245985e+19,431.02604054703,370
110.18176537727,135.38754400962,44444178.914737,-8.6606758810651e-10,-4.4444178914737e+19,-866.06758810651,370
122.099941915,142.35009063638,44444202.262092,-6.0914212376156e-10,-4.4444202262092e+19,-609.14212376156,370
135.2099361065,149.63552899932,44444224.373371,6.343119453034e-10,-4.4444224373371e+19,634.3119453034,370
149.63092971715,157.26046203398,44444245.326638,5.802442933544e-10,-4.4444245326638e+19,580.2442933544,370
165.49402268886,165.24225799081,44444265.193483,-5.4423862535182e-10,-4.4444265193483e+19,-544.23862535182,370
182.94342495775,173.5990902692,44444284.039716,-4.2517833614011e-10,-4.4444284039716e+19,-425.17833614011,370
202.13776745353,182.3499791406,44444301.925976,5.4996984586815e-10,-4.4444301925976e+19,549.96984586815,370
223.25154419888,191.51483541618,44444318.908262,1.498877298475e-10,-4.4444318908262e+19,149.8877298475,370
246.47669861877,201.11450613154,44444335.038406,-5.012830038689e-10,-4.4444335038406e+19,-501.2830038689,370
272.02436848064,211.17082233639,44444350.36448,2.9974122643653e-10,-4.444435036448e+19,299.74122643653,370
300.12680532871,221.70664908932,44444364.931166,5.5355415965019e-09,-4.4444364931166e+19,5535.5415965019,370
331.03948586158,232.74593776621,44444378.780066,1.2154653428527e-07,-4.4444378780066e+19,121546.53428527,370
365.04343444774,244.31378078261,44444391.949991,1.6026577158566e-06,-4.4444391949991e+19,1602657.7158566,370
402.44777789251,256.4364687127,44444404.477205,1.3790367609918e-05,-4.4444404477205e+19,13790367.609918,370
443.59255568176,269.14154915374,44444416.39565,8.5380970230175e-05,-4.444441639565e+19,85380970.230175,370
488.85181124994,282.45788437733,44444427.737135,0.00040809608784264,-4.4444427737135e+19,408096087.84264,370
538.63699237493,296.41569848153,44444438.531521,0.0015859653277286,-4.4444438531521e+19,1585965327.7286,370
593.40069161242,311.04659102812,44444448.806868,0.0052059524925548,-4.4444448806868e+19,5205952492.5548,370
653.64076077367,326.38346995607,44444458.589576,0.014848523484387,-4.4444458589576e+19,14848523484.387,370
719.90483685103,342.46032179965,44444467.904516,0.037599652134049,-4.4444467904516e+19,37599652134.049,370
792.79532053614,359.31169754096,44444476.775137,0.085954337193087,-4.4444476775137e+19,85954337193.087,370
872.97485258975,376.97176016068,44444485.22357,0.17977219710092,-4.444448522357e+19,179772197100.92,370
961.17233784872,395.4727317498,44444493.270719,0.34774376248461,-4.4444493270719e+19,347743762484.61,370
1058.1895716336,414.84260894014,44444500.936349,0.62775293229263,-4.4444500936349e+19,627752932292.63,370
1164.908528797,435.10209176797,44444508.239154,1.0656428052715,-4.4444508239154e+19,1065642805271.5,370
1282.2993816767,456.26078576821,44444515.196835,1.7122012594199,-4.4444515196835e+19,1712201259419.9,370
1411.4293198443,478.31286955917,44444521.826156,2.6185948691404,-4.4444521826156e+19,2618594869140.4,370
1553.4722518287,501.23254193942,44444528.142995,3.8308675972232,-4.4444528142995e+19,3830867597223.2,370
1709.7194770116,524.96964600202,44444534.162388,5.3843657196556,-4.4444534162388e+19,5384365719655.6,370
1881.5914247128,549.44589510235,44444539.898523,7.2989870332419,-4.4444539898523e+19,7298987033241.9,370
2070.6505671841,574.55209409585,44444545.364689,9.5759851475153,-4.4444545364689e+19,9575985147515.3,370
2278.6156239025,600.14667231869,44444550.573108,12.196751564374,-4.4444550573108e+19,12196751564374,370
2507.3771862927,626.05574673768,44444555.534612,15.123640596372,-4.4444555534612e+19,15123640596372,370
2759.014904922,652.07484159782,44444560.258107,18.302581856126,-4.4444560258107e+19,18302581856126,370
3035.8163954142,677.97232433136,44444564.749843,21.667001542959,-4.4444564749843e+19,21667001542959,370
3340.2980349556,703.49458023792,44444569.012546,25.142470746236,-4.4444569012546e+19,25142470746236,370
3675.2278384512,728.37292545261,44444573.044628,28.651508691125,-4.4444573044628e+19,28651508691125,370
4043.6506222963,752.33221968613,44444576.83969,32.118063353669,-4.444457683969e+19,32118063353669,370
4448.9156845259,775.1010550832,44444580.386637,35.47133541253,-4.4444580386637e+19,35471335412530,370
4894.7072529785,796.42324471369,44444583.670577,38.648769521489,-4.4444583670577e+19,38648769521489,370
5385.0779782764,816.07011564467,44444586.674557,41.598180422786,-4.4444586674557e+19,41598180422786,370
5924.485776104,833.85285523404,44444589.381987,44.279088307705,-4.4444589381987e+19,44279088307705,370
6517.8343537144,849.63391457614,44444591.779396,46.663393516794,-4.4444591779396e+19,46663393516794,370
7170.5177890858,863.33630068913,44444593.859102,48.735520856458,-4.4444593859102e+19,48735520856458,370
7888.4695679944,874.94954982255,44444595.621318,50.492118171608,-4.4444595621318e+19,50492118171608,370
8678.2165247939,884.5313176479,44444597.075386,51.94132712615,-4.4444597075386e+19,51941327126150,370
9546.9381772733,892.20387457434,44444598.239912,53.101590732436,-4.4444598239912e+19,53101590732436,370
10502.531995001,898.14534694067,44444599.141821,53.999953438128,-4.4444599141821e+19,53999953438128,370
11553.685194501,902.5762415249,44444599.81448,54.669859699304,-4.444459981448e+19,54669859699304,370
12709.953713951,905.74252501782,44444600.295173,55.148554676446,-4.4444600295173e+19,55148554676446,370
13981.849085346,907.89715457634,44444600.622281,55.474302389153,-4.4444600622281e+19,55474302389153,370
15380.93399388,909.2823112149,44444600.832567,55.68371973121,-4.4444600832567e+19,55683719731210,370
16919.927393268,910.11454825967,44444600.958912,55.80954444624,-4.4444600958912e+19,55809544446240,370
18612.820132595,910.57458762313,44444601.028751,55.879097630337,-4.4444601028751e+19,55879097630337,370
20475.002145855,910.80264842054,44444601.063373,55.913578128092,-4.4444601063373e+19,55913578128092,370
22523.40236044,910.80264842054,44444601.063373,55.913578128092,-4.4444601063373e+19,55913578128092,370
24776.642596484,910.80264842054,44444601.063373,55.913578128092,-4.4444601063373e+19,55913578128092,370
27255.206856133,910.80264842054,44444601.063373,55.913578128092,-4.4444601063373e+19,55913578128092,370
29981.627541746,910.80264842054,44444601.063373,55.913578128092,-4.4444601063373e+19,55913578128092,370
32980.690295921,910.80264842054,44444601.063373,55.913578128092,-4.4444601063373e+19,55913578128092,370
36279.659325513,910.80264842054,44444601.063373,55.913578128092,-4.4444601063373e+19,55913578128092,370
39908.525258064,910.80264842054,44444601.063373,55.913578128092,-4.4444601063373e+19,55913578128092,370
43900.27778387,910.80264842054,44444601.063373,55.913578128092,-4.4444601063373e+19,55913578128092,370
48291.205562257,910.80264842054,44444601.063373,55.913578128092,-4.4444601063373e+19,55913578128092,370
53121.226118483,910.80264842054,44444601.063373,55.913578128092,-4.4444601063373e+19,55913578128092,370
58434.248730331,910.80264842054,44444601.063373,55.913578128092,-4.4444601063373e+19,55913578128092,370
64278.573603365,910.80264842054,44444601.063373,55.913578128092,-4.4444601063373e+19,55913578128092,370
70707.330963701,910.80264842054,44444601.063373,55.913578128092,-4.4444601063373e+19,55913578128092,370
77778.964060071,910.80264842054,44444601.063373,55.913578128092,-4.4444601063373e+19,55913578128092,370
85557.760466078,910.80264842054,44444601.063373,55.913578128092,-4.4444601063373e+19,55913578128092,370
94114.436512686,910.80264842054,44444601.063373,55.913578128092,-4.4444601063373e+19,55913578128092,370
103526.78016395,910.80264842054,44444601.063373,55.913578128092,-4.4444601063373e+19,55913578128092,370
113526.78016395,910.80264842054,44444601.063373,55.913578128092,-4.4444601063373e+19,55913578128092,370
123526.78016395,910.80264842054,44444601.063373,55.913578128092,-4.4444601063373e+19,55913578128092,370
133526.78016395,910.80264842054,44444601.063373,55.913578128092,-4.4444601063373e+19,55913578128092,370
143526.78016395,910.80264842054,44444601.063373,55.913578128092,-4.4444601063373e+19,55913578128092,370
153526.78016395,910.80264842054,44444601.063373,55.913578128092,-4.4444601063373e+19,55913578128092,370
163526.78016395,910.80264842054,44444601.063373,55.913578128092,-4.4444601063373e+19,55913578128092,370
173526.78016395,910.80264842054,44444601.063373,55.913578128092,-4.4444601063373e+19,55913578128092,370
183526.78016395,910.80264842054,44444601.063373,55.913578128092,-4.4444601063373e+19,55913578128092,370
193526.78016395,910.80264842054,44444601.063373,55.913578128092,-4.4444601063373e+19,55913578128092,370
203526.78016395,910.80264842054,44444601.063373,55.913578128092,-4.4444601063373e+19,55913578128092,370
213526.78016395,910.80264842054,44444601.063373,55.913578128092,-4.4444601063373e+19,55913578128092,370
223526.78016395,910.80264842054,44444601.063373,55.913578128092,-4.4444601063373e+19,55913578128092,370
233526.78016395,910.80264842054,44444601.063373,55.913578128092,-4.4444601063373e+19,55913578128092,370
243526.78016395,910.80264842054,44444601.063373,55.913578128092,-4.4444601063373e+19,55913578128092,370
253526.78016395,910.80264842054,44444601.063373,55.913578128092,-4.4444601063373e+19,55913578128092,370
259200,671.07082390219,40.087653776172,5.9531650000207,-40087653776172,5953165000020.7,295
259700,650.42075349639,27.029493202238,5.9474485185523,-27029493202238,5947448518552.3,295
260250,629.79617735523,22.464822887218,5.9404375421789,-22464822887218,5940437542178.9,295
260855,609.42757649848,19.394664032059,5.931606228666,-19394664032059,5931606228666,295
261520.5,589.10278231132,17.200241208528,5.9202759942568,-17200241208528,5920275994256.8,295
262252.55,568.58738346184,15.457618883425,5.9054933855805,-15457618883425,5905493385580.5,295
263057.805,547.70046779918,13.987779202943,5.8858739740414,-13987779202943,5885873974041.4,295
263943.5855,526.30960203243,12.706914110036,5.8593889762907,-12706914110036,5859388976290.8,295
264917.94405,504.31722165043,11.568375321198,5.8231031648005,-11568375321198,5823103164800.5,295
265989.738455,481.65213489026,10.542469177206,5.772933381066,-10542469177206,5772933381066,295
267168.7123005,458.26665069979,9.6086589755045,5.7035718161125,-9608658975504.5,5703571816112.5,295
268465.58353055,434.13781620879,8.7519851844599,5.6087479964902,-8751985184459.9,5608747996490.2,295
269892.1418836,409.27117609523,7.961158794022,5.4819236332428,-7961158794022,5481923633242.8,295
271461.35607197,383.70551777216,7.2274347848078,5.3173314631082,-7227434784807.8,5317331463108.2,295
273187.49167916,357.51716008666,6.5439008887415,5.1110865326193,-6543900888741.5,5111086532619.3,295
275086.24084708,330.82262742879,5.9050125443816,4.8620401695557,-5905012544381.6,4862040169555.7,295
277174.86493179,303.77902182977,5.3062882596875,4.5721490878999,-5306288259687.5,4572149087899.9,295
279472.35142496,276.5819066502,4.7441194550407,4.2463186117138,-4744119455040.7,4246318611713.8,295
281999.58656746,249.46087672805,4.2156680835197,3.8918381204753,-4215668083519.7,3891838120475.3,295
284779.54522421,222.67313879542,3.7188313475663,3.5175964978933,-3718831347566.3,3517596497893.3,295
287837.49974663,196.49540274617,3.2522490412891,3.1332530395241,-3252249041289.1,3133253039524.1,295
291201.24972129,171.21429085087,2.8153199343411,2.7484863367369,-2815319934341.1,2748486336736.9,295
294901.37469342,147.11541300404,2.4081862557583,2.3723864075806,-2408186255758.3,2372386407580.6,295
298971.51216276,124.47130167046,2.0316473536157,2.0130107858001,-2031647353615.7,2013010785800.1,295
302400,106.26079588657,2.0810647294739,2.0675132981064,-2081064729473.9,2067513298106.4,300
302420,106.15318379057,2.1549138175918,2.1411006612612,-2154913817591.8,2141100661261.2,301
302442,106.03178339579,2.2386894128434,2.2243973039077,-2238689412843.4,2224397303907.7,302.1
302466.2,105.89332799038,2.3337292222382,2.3188966738894,-2333729222238.2,2318896673889.4,303.31
302492.82,105.73445122161,2.4418340914141,2.4263786892097,-2441834091414.1,2426378689209.7,304.641
302522.102,105.55128253088,2.5651093676564,2.5489640516364,-2565109367656.4,2548964051636.4,306.1051
302554.3122,105.33917291491,2.706126226342,2.6891849054311,-2706126226342,2689184905431.1,307.71561
302589.74342,105.09243729523,2.8679190237203,2.8500729715712,-2867919023720.3,2850072971571.2,309.487171
302628.717762,104.80405645692,3.0541458343133,3.0352677798602,-3054145834313.3,3035267779860.2,311.4358881
302671.5895382,104.46530417294,3.269204880251,3.2491482728203,-3269204880251,3249148272820.3,313.57947691
302718.74849202,104.06526722286,3.5183947174077,3.4969910313423,-3518394717407.7,3496991031342.3,315.937424601
302770.62334122,103.5902214293,3.808101436232,3.7851573728972,-3808101436232,3785157372897.2,318.5311670611
302827.68567534,103.02281785519,4.1460139079711,4.1213088308257,-4146013907971.1,4121308830825.7,321.38428376721
302890.45424288,102.34102144598,4.5413604836955,4.5146445935554,-4541360483695.5,4514644593555.4,324.52271214393
302959.49966717,101.51673097595,5.0051487117693,4.9761428234059,-5005148711769.3,4976142823405.9,327.97498335832
303035.44963388,100.51399681914,5.5503677209996,5.518766041052,-5550367720999.6,5518766041052,331.77248169416
303118.99459727,99.286747793641,6.1920736245492,6.1575517217345,-6192073624549.2,6157551721734.5,335.94972986357
303210.894057,97.775952850799,6.9472100324584,6.9094412800484,-6947210032458.4,6909441280048.4,340.54470284993
303311.9834627,95.906203198482,7.8339009254193,7.7925860451992,-7833900925419.3,7792586045199.2,345.59917313492
303423.18180897,93.581853982104,8.8697676325563,8.8246833213001,-8869767632556.3,8824683321300.1,351.15909044841
303545.49998987,90.683198714451,10.068539245669,10.019612504689,-10068539245669,10019612504689,357.27499949325
303680.04998885,87.063808450608,11.43383742201,11.381250677804,-11433837422010,11381250677804,364.00249944258
303828.05498774,82.551362267422,12.948587121025,12.892913328997,-12948587121025,12892913328997,371.40274938684
303990.86048651,76.956258531632,14.558311539292,14.50066664239,-14558311539292,14500666642390,379.54302432552
304169.94653516,70.095063223398,16.147381413772,16.089567077124,-16147381413772,16089567077124,388.49732675807
304366.94118868,61.838624344012,17.510787241314,17.455392959638,-17510787241314,17455392959638,398.34705943388
304583.63530755,52.194460042481,18.332965163504,18.283419541241,-18332965163504,18283419541241,409.18176537727
304821.9988383,41.422714095666,18.201905006374,18.162475194186,-18201905006374,18162475194186,421.099941915
305084.19872213,30.153675882638,16.706004761314,16.681591597432,-16706004761314,16681591597432,434.20993610649
305372.61859434,19.418891995238,13.655248968195,13.650511980826,-13655248968195,13650511980826,448.63092971714
305689.88045378,10.462214879672,9.3819019770032,9.3979920552885,-9381901977003.2,9397992055288.5,464.49402268886
306038.86849915,4.2670996396487,4.8786707852703,4.9111441158783,-4878670785270.3,4911144115878.3,481.94342495774
306422.75534907,1.007579311865,1.4358074251211,1.47022644798,-1435807425121.1,1470226447980,501.13776745352
306845.03088398,-0.085353407170514,-0.20751407735231,-0.19451522327324,207514077352.31,-194515223273.24,522.25154419887
307309.53397238,-0.085353407170514,-0.27045419605439,-0.25351272068828,270454196054.39,-253512720688.28,545.47669861876
307820.48736961,-0.085353407170514,-0.35304936626785,-0.33093406087084,353049366267.85,-330934060870.84,571.02436848063
308382.53610657,-0.085353407170514,-0.46105267224716,-0.43217195010158,461052672247.16,-432171950101.58,599.1268053287
309000.78971723,-0.085353407170514,-0.60160821019562,-0.56392297246676,601608210195.62,-563922972466.76,630.03948586157
309680.86868895,-0.085353407170514,-0.7834407013295,-0.73436532540259,783440701329.5,-734365325402.59,664.04343444773
310428.95555785,-0.085353407170514,-1.0170079036801,-0.95330168429551,1017007903680.1,-953301684295.51,701.4477778925
311251.85111363,-0.085353407170514,-1.314586766507,-1.2322399601113,1314586766507,-1232239960111.3,742.59255568175
312157.036225,-0.085353407170514,-1.690261236661,-1.584381869578,1690261236661,-1584381869578,787.85181124993
313152.7398475,-0.085353407170514,-2.1597803732661,-2.0244899376814,2159780373266.1,-2024489937681.4,837.63699237492
314248.01383225,-0.085353407170514,-2.7402611914767,-2.5686089555367,2740261191476.7,-2568608955536.7,892.40069161241
315452.81521547,-0.085353407170514,-3.4497220039426,-3.2336285537306,3449722003942.6,-3233628553730.6,952.64076077366
316400,-0.085353407170514,-4.0544962127805,-3.8005192040563,4054496212780.5,-3800519204056.3,1000
