time,average,flux_surface_left,flux_surface_right,temperature
0,0,0,0,370
1,4.7877147305189e-07,7.168993332624e-07,-2.0262730554267e-70,370
2.1,1.005420093409e-06,7.227428739484e-07,-6.9885412221379e-70,370
3.31,1.5847335758017e-06,5.3591087136001e-07,-1.813862664081e-69,370
4.641,2.2219784064336e-06,3.5045141962449e-07,-3.9055146682675e-69,370
6.1051,2.9229477201287e-06,1.9906617725453e-07,-7.3317555996985e-69,370
7.71561,3.6940139651935e-06,7.097621673834e-08,-1.2438398426924e-68,370
9.487171,4.5421868347646e-06,-4.5665921256988e-08,-1.9563600417914e-68,370
11.4358881,5.4751769912928e-06,-1.564799373554e-07,-2.9046554191775e-68,370
13.57947691,6.5014661634744e-06,-2.6271876380001e-07,-4.1233754276447e-68,370
15.937424601,7.6303842528739e-06,-3.6366324724693e-07,-5.6481679094723e-68,370
18.5311670611,8.8721941512132e-06,-4.5803689135687e-07,-7.5156567584331e-68,370
21.38428376721,1.0238185039387e-05,-5.4463777087874e-07,-9.7632241864432e-68,370
24.522712143931,1.1740775016377e-05,-6.2255161503841e-07,-1.2428705397622e-67,370
27.974983358324,1.3393623991067e-05,-6.9119491390726e-07,-1.5550111922039e-67,370
31.772481694157,1.5211757863226e-05,-7.5031190982757e-07,-1.916549027442e-67,370
35.949729863572,1.72117051226e-05,-7.9996630475753e-07,-2.3312999369134e-67,370
40.544702849929,1.9411647107913e-05,-8.4052880897297e-07,-2.8031263018183e-67,370
45.599173134922,2.1831583291756e-05,-8.7265086203942e-07,-3.3360025768578e-67,370
51.159090448415,2.4493513093984e-05,-8.9721799699466e-07,-3.9341109242056e-67,370
57.274999493256,2.7421635876434e-05,-9.1528328168203e-07,-4.6019631357512e-67,370
64.002499442582,3.0642570937129e-05,-9.2798712388449e-07,-5.3445416200709e-67,370
71.40274938684,3.4185599503894e-05,-9.3647310629345e-07,-6.1674495320047e-67,370
79.543024325524,3.8082930927336e-05,-9.4181054215366e-07,-7.0770589995083e-67,370
88.497326758076,4.2369995493121e-05,-9.4493338378675e-07,-8.0806474111607e-67,370
98.347059433884,4.7085766515485e-05,-9.4660219864361e-07,-9.1865149170291e-67,370
109.18176537727,5.2273114640085e-05,-9.4739165125103e-07,-1.0404081092237e-66,370
121.099941915,5.7979197577146e-05,-9.4770123051482e-07,-1.1743964006234e-66,370
134.2099361065,6.4255888807912e-05,-9.4778302886077e-07,-1.3218049386516e-66,370
148.63092971715,7.1160249161755e-05,-9.4777823175172e-07,-1.4839560029753e-66,370
164.49402268886,7.8755045550983e-05,-9.4775407145238e-07,-1.6623135594028e-66,370
181.94342495775,8.7109321579133e-05,-9.4773504273799e-07,-1.8584930728873e-66,370
201.13776745353,9.6299025210098e-05,-9.4772526627473e-07,-2.074273617373e-66,370
222.25154419888,0.00010640769920416,-9.4772188690517e-07,-2.3116124233892e-66,370
245.47669861877,0.00011752724059763,-9.4772142913359e-07,-2.5726617905445e-66,370
271.02436848064,0.00012975873613044,-9.4772177176535e-07,-2.859788223188e-66,370
299.12680532871,0.00014321338121654,-9.4772208286017e-07,-3.1755936976344e-66,370
330.03948586158,0.00015801349081124,-9.4772221741394e-07,-3.5229390782642e-66,370
364.04343444774,0.00017429361136542,-9.4772224575572e-07,-3.9049698094587e-66,370
401.44777789251,0.00019220174397501,-9.4772224110237e-07,-4.3251440888426e-66,370
442.59255568176,0.00021190068984557,-9.4772223526247e-07,-4.787263771658e-66,370
487.85181124994,0.00023356953030317,-9.4772223387576e-07,-5.295508279609e-66,370
537.63699237493,0.00025740525480654,-9.477222349837e-07,-5.8544718050807e-66,370
592.40069161242,0.00028362455176025,-9.4772223673495e-07,-6.4692041218299e-66,370
652.64076077367,0.00031246577840933,-9.4772223856484e-07,-7.1452553381037e-66,370
718.90483685103,0.00034419112772331,-9.477222404805e-07,-7.8887249565978e-66,370
791.79532053614,0.00037908901196869,-9.4772224256771e-07,-8.7063156363884e-66,370
871.97485258975,0.00041747668463861,-9.4772224484792e-07,-9.6053920843318e-66,370
960.17233784872,0.00045970312457553,-9.4772224737116e-07,-1.059404553731e-65,370
1057.1895716336,0.00050615220850614,-9.4772225012314e-07,-1.1681164332052e-65,370
1163.908528797,0.00055724620082981,-9.4772225319677e-07,-1.2876511095917e-65,370
1281.2993816767,0.00061344959238584,-9.4772225654203e-07,-1.4190807129638e-65,370
1410.4293198443,0.00067527332309748,-9.477222602304e-07,-1.5635824591174e-65,370
1552.4722518287,0.00074327942688028,-9.4772226428331e-07,-1.7224487127807e-65,370
1708.7194770116,0.00081808614104137,-9.477222687508e-07,-1.8970979640709e-65,370
1880.5914247128,0.00090037352661856,-9.4772227365432e-07,-2.089086790127e-65,370
2069.6505671841,0.00099088965075346,-9.477222790582e-07,-2.300122877015e-65,370
2277.6156239025,0.0010904573873019,-9.4772228499818e-07,-2.5320791796611e-65,370
2506.3771862927,0.0011999818975051,-9.4772229153859e-07,-2.7870092994929e-65,370
2758.014904922,0.0013204588587287,-9.4772229872947e-07,-3.0671641603875e-65,370
3034.8163954142,0.0014529835160746,-9.4772230663515e-07,-3.375010063091e-65,370
3339.2980349556,0.0015987606391551,-9.477223153414e-07,-3.7132481960704e-65,370
3674.2278384512,0.0017591154745436,-9.4772232489111e-07,-4.0848356762469e-65,370
4042.6506222963,0.0019355057934711,-9.4772233542725e-07,-4.4930081856072e-65,370
4447.9156845259,0.0021295351442912,-9.47722347007e-07,-4.9413042585036e-65,370
4893.7072529785,0.0023429674301934,-9.4772235970183e-07,-5.4335912585695e-65,370
5384.0779782764,0.0025777429446857,-9.4772237374048e-07,-5.9740930624301e-65,370
5884.0779782764,0.0028171286812116,-9.4772238800787e-07,-6.5241159035103e-65,370
6384.0779782764,0.0030565144177376,-9.4772240230385e-07,-7.0730365413986e-65,370
6884.0779782764,0.0032959001542635,-9.4772241657123e-07,-7.6208560629214e-65,370
7384.0779782764,0.0035352858907894,-9.4772243085292e-07,-8.1675755606454e-65,370
7884.0779782764,0.0037746716273153,-9.477224451346e-07,-8.7131961285674e-65,370
8384.0779782764,0.0040140573638412,-9.4772245941629e-07,-9.2577188606775e-65,370
8884.0779782764,0.0042534431003671,-9.4772247369797e-07,-9.8011448504808e-65,370
9384.0779782764,0.0044928288368931,-9.4772248796536e-07,-1.0343475190837e-64,370
9884.0779782764,0.004732214573419,-9.4772250226134e-07,-1.088471097391e-64,370
10384.077978276,0.0049716003099449,-9.4772251652873e-07,-1.1424853291146e-64,370
10884.077978276,0.0052109860464708,-9.4772253079612e-07,-1.1963903233273e-64,370
11384.077978276,0.0054503717829967,-9.477225450921e-07,-1.2501861890295e-64,370
11884.077978276,0.0056897575195226,-9.4772255937378e-07,-1.3038730351495e-64,370
12384.077978276,0.0059291432560485,-9.4772257362687e-07,-1.3574509705434e-64,370
12884.077978276,0.0061685289925745,-9.4772258793715e-07,-1.4109201039948e-64,370
13384.077978276,0.0064079147291004,-9.4772260217594e-07,-1.4642805442154e-64,370
13884.077978276,0.0066473004656263,-9.4772261647192e-07,-1.5175323998448e-64,370
14384.077978276,0.0068866862021522,-9.4772263075361e-07,-1.5706757794502e-64,370
14884.077978276,0.0071260719386781,-9.4772264503529e-07,-1.6237107915271e-64,370
15384.077978276,0.007365457675204,-9.4772265928839e-07,-1.6766375444987e-64,370
15884.077978276,0.00760484341173,-9.4772267357007e-07,-1.7294561467164e-64,370
16384.077978276,0.0078442291482559,-9.4772268782316e-07,-1.7821667064594e-64,370
16884.077978276,0.0080836148847818,-9.4772270211914e-07,-1.8347693319352e-64,370
17384.077978276,0.0083230006213077,-9.4772271640083e-07,-1.8872641312793e-64,370
17884.077978276,0.0085623863578336,-9.4772273068251e-07,-1.9396512125555e-64,370
18384.077978276,0.0088017720943595,-9.477227449499e-07,-1.9919306837555e-64,370
18884.077978276,0.0090411578308854,-9.4772275924588e-07,-2.0441026527995e-64,370
19384.077978276,0.0092805435674114,-9.4772277348467e-07,-2.0961672275358e-64,370
19884.077978276,0.0095199293039373,-9.4772278776636e-07,-2.1481245157411e-64,370
20384.077978276,0.0097593150404632,-9.4772280204804e-07,-2.1999746251203e-64,370
20884.077978276,0.0099987007769891,-9.4772281632973e-07,-2.2517176633068e-64,370
21384.077978276,0.010238086513515,-9.4772283056852e-07,-2.3033537378622e-64,370
21884.077978276,0.010477472250041,-9.477228448645e-07,-2.3548829562768e-64,370
22384.077978276,0.010716857986567,-9.477228591176e-07,-2.4063054259692e-64,370
22884.077978276,0.010956243723093,-9.4772287342787e-07,-2.4576212542865e-64,370
23384.077978276,0.011195629459619,-9.4772288768096e-07,-2.5088305485044e-64,370
23884.077978276,0.011435015196145,-9.4772290194835e-07,-2.5599334158271e-64,370
24384.077978276,0.011674400932671,-9.4772291621574e-07,-2.6109299633876e-64,370
24884.077978276,0.011913786669196,-9.4772293049742e-07,-2.6618202982474e-64,370
25384.077978276,0.012153172405722,-9.4772294477911e-07,-2.7126045273966e-64,370
25884.077978276,0.012392558142248,-9.477229590322e-07,-2.7632827577542e-64,370
26384.077978276,0.012631943878774,-9.4772297331388e-07,-2.8138550961678e-64,370
26884.077978276,0.0128713296153,-9.4772298758127e-07,-2.864321649414e-64,370
27384.077978276,0.013110715351826,-9.4772300182007e-07,-2.914682524198e-64,370
27884.077978276,0.013350101088352,-9.4772301611605e-07,-2.964937827154e-64,370
28384.077978276,0.013589486824878,-9.4772303041203e-07,-3.015087664845e-64,370
28884.077978276,0.013828872561404,-9.4772304462223e-07,-3.065132143763e-64,370
29384.077978276,0.01406825829793,-9.4772305894681e-07,-3.115071370329e-64,370
29884.077978276,0.014307644034456,-9.477230731856e-07,-3.1649054508929e-64,370
30384.077978276,0.014547029770981,-9.4772308745299e-07,-3.2146344917338e-64,370
30884.077978276,0.014786415507507,-9.4772310174897e-07,-3.2642585990596e-64,370
31384.077978276,0.015025801244033,-9.4772311601636e-07,-3.3137778790076e-64,370
31884.077978276,0.015265186980559,-9.4772313025515e-07,-3.3631924376441e-64,370
32384.077978276,0.015504572717085,-9.4772314452254e-07,-3.4125023809646e-64,370
32884.077978276,0.015743958453611,-9.4772315878993e-07,-3.4617078148938e-64,370
33384.077978276,0.015983344190137,-9.4772317308591e-07,-3.5108088452856e-64,370
33884.077978276,0.016222729926663,-9.477231873533e-07,-3.5598055779234e-64,370
34384.077978276,0.016462115663189,-9.477232015921e-07,-3.6086981185198e-64,370
34884.077978276,0.016701501399715,-9.4772321585948e-07,-3.6574865727165e-64,370
35384.077978276,0.016940887136241,-9.4772323015546e-07,-3.706171046085e-64,370
35884.077978276,0.017180272872767,-9.4772324442285e-07,-3.754751644126e-64,370
36084.077978276,0.017201551604902,-8.9215103293751e-08,-4.0321083997829e-65,295
36284.077978276,0.017208644515614,-2.7085454280056e-08,-4.0339740901406e-65,295
36484.077978276,0.017211008819185,-3.7095462140281e-09,-4.0344030191742e-65,295
36684.077978276,0.017211796920375,1.9578026828002e-09,-4.0342879196005e-65,295
36884.077978276,0.017212059620772,1.9919162849498e-09,-4.0339908327351e-65,295
37084.077978276,0.017212147187571,1.0273827471471e-09,-4.033643549176e-65,295
37284.077978276,0.017212176376504,3.5892283261078e-10,-4.033286725909e-65,295
37484.077978276,0.017212186106148,6.8929590987314e-11,-4.0329298358462e-65,295
37684.077978276,0.017212189349363,-1.4202274290046e-11,-4.0325738223997e-65,295
37884.077978276,0.017212190430434,-2.1388729150362e-11,-4.0322181881575e-65,295
38084.077978276,0.017212190790791,-1.2163279168837e-11,-4.0318625917968e-65,295
38284.077978276,0.017212190910911,-4.6818052189004e-12,-4.0315069381984e-65,295
38484.077978276,0.01721219095095,-1.1682328509518e-12,-4.0311512381206e-65,295
38684.077978276,0.017212190964297,-5.252384783567e-14,-4.030795520815e-65,295
38884.077978276,0.017212190968746,1.0861224648187e-13,-4.0304398062495e-65,295
39084.077978276,0.017212190970229,2.8635991414655e-14,-4.0300841036606e-65,295
39284.077978276,0.017212190970723,-5.3011386398143e-14,-4.0297284161448e-65,295
39484.077978276,0.017212190970888,-9.4875310885163e-14,-4.029372744308e-65,295
39684.077978276,0.017212190970943,-1.528623654573e-13,-5.6223470370279e-65,304.20389891382
39884.077978276,0.017212190970961,-2.1874340387628e-13,-7.8974644265297e-65,314.20389891382
40084.077978276,0.017212190970967,-2.9850560586816e-13,-1.0862388169514e-64,324.20389891382
40284.077978276,0.017212190970969,-4.0092416534452e-13,-1.465684556553e-64,334.20389891382
40484.077978276,0.01721219097097,-5.3135224608246e-13,-1.9433319496143e-64,344.20389891382
40684.077978276,0.01721219097097,-6.9372526628508e-13,-2.5355689149044e-64,354.20389891382
40884.077978276,0.01721219097097,-8.9245859340562e-13,-3.2597509892243e-64,364.20389891382
41084.077978276,0.01721219097097,-1.1327553612138e-12,-4.1339944159174e-64,374.20389891382
41284.077978276,0.01721219097097,-1.4199796733953e-12,-5.1769353967965e-64,384.20389891382
41484.077978276,0.01721219097097,-1.7597394423793e-12,-6.4074563795388e-64,394.20389891382
41684.077978276,0.01721219097097,-2.1577664990448e-12,-7.8443800660101e-64,404.20389891382
41884.077978276,0.01721219097097,-2.6198607983223e-12,-9.5061317045802e-64,414.20389891382
42084.077978276,0.01721219097097,-3.151985412086e-12,-1.1410370219832e-63,424.20389891382
42284.077978276,0.01721219097097,-3.7600264828201e-12,-1.3573588871899e-63,434.20389891382
42484.077978276,0.01721219097097,-4.449816660107e-12,-1.601068644825e-63,444.20389891382
42684.077978276,0.01721219097097,-5.2272313844716e-12,-1.8734510484709e-63,454.20389891382
42884.077978276,0.01721219097097,-6.0978372039963e-12,-2.1755374691162e-63,464.20389891382
43084.077978276,0.01721219097097,-7.0674575967212e-12,-2.5080553612824e-63,474.20389891382
43284.077978276,0.01721219097097,-8.1414680495524e-12,-2.8713758574609e-63,484.20389891382
43484.077978276,0.01721219097097,-9.3248744374474e-12,-3.2654600111605e-63,494.20389891382
43684.077978276,0.01721219097097,-1.0623072812408e-11,-3.6898043354905e-63,504.20389891382
43884.077978276,0.01721219097097,-1.2040444948101e-11,-4.1433864186089e-63,514.20389891382
44084.077978276,0.01721219097097,-1.3581640653038e-11,-4.6246115358342e-63,524.20389891382
44284.077978276,0.01721219097097,-1.5251551812402e-11,-5.1312613166651e-63,534.20389891382
44484.077978276,0.01721219097097,-1.7052955547873e-11,-5.6604456589956e-63,544.20389891382
44684.077978276,0.01721219097097,-1.8990641166011e-11,-6.2085592078129e-63,554.20389891382
44884.077978276,0.01721219097097,-2.1067007969433e-11,-6.7712438268028e-63,564.20389891382
45084.077978276,0.01721219097097,-2.3286286040555e-11,-7.3433585836314e-63,574.20389891382
45284.077978276,0.01721219097097,-2.5650408350775e-11,-7.9189588382448e-63,584.20389891382
45484.077978276,0.01721219097097,-2.8161793315467e-11,-8.4912860634503e-63,594.20389891382
45684.077978276,0.01721219097097,-3.0823842262762e-11,-9.0527700335677e-63,604.20389891382
45884.077978276,0.01721219097097,-3.3637307700512e-11,-9.5950449856603e-63,614.20389891382
46084.077978276,0.01721219097097,-3.6603715809156e-11,-1.0108981284768e-62,624.20389891382
46284.077978276,0.01721219097097,-3.9723743958424e-11,-1.0584734006254e-62,634.20389891382
46484.077978276,0.01721219097097,-4.300060129973e-11,-1.1011809682157e-62,644.20389891382
46684.077978276,0.01721219097097,-4.6432783847659e-11,-1.137915224246e-62,654.20389891382
46884.077978276,0.01721219097097,-5.0021944588685e-11,-1.1675248915687e-62,664.20389891382
47084.077978276,0.01721219097097,-5.3766874060535e-11,-1.1888256536512e-62,674.20389891382
47284.077978276,0.01721219097097,-5.7668909980991e-11,-1.2006148342765e-62,684.20389891382
47484.077978276,0.01721219097097,-6.1728725701615e-11,-1.201688093336e-62,694.20389891382
47684.077978276,0.01721219097097,-6.5942396184049e-11,-1.1908580606649e-62,704.20389891382
47884.077978276,0.01721219097097,-7.0310721685038e-11,-1.1669747811529e-62,714.20389891382
48084.077978276,0.01721219097097,-7.4831627206469e-11,-1.128947792876e-62,724.20389891382
48284.077978276,0.01721219097097,-7.9507028455887e-11,-1.0757696066285e-62,734.20389891382
48484.077978276,0.01721219097097,-8.4329991626304e-11,-1.0065403010311e-62,744.20389891382
48684.077978276,0.01721219097097,-8.9304550366077e-11,-9.2049289350727e-63,754.20389891382
48884.077978276,0.01721219097097,-9.4425371912647e-11,-8.1701909514786e-63,764.20389891382
49084.077978276,0.01721219097097,-9.9691692605579e-11,-6.9569500817142e-63,774.20389891382
49284.077978276,0.01721219097097,-1.0509697979256e-10,-5.5630627979674e-63,784.20389891382
49484.077978276,0.01721219097097,-1.1064450766665e-10,-3.9887218732432e-63,794.20389891382
49684.077978276,0.01721219097097,-1.1633048765933e-10,-2.2366809756519e-63,804.20389891382
49884.077978276,0.01721219097097,-1.2214724310729e-10,-3.1245720893016e-64,814.20389891382
50084.077978276,0.01721219097097,-1.2809860689132e-10,1.7754943250105e-63,824.20389891382
50284.077978276,0.01721219097097,-1.3417830078161e-10,4.0156398784803e-63,834.20389891382
50484.077978276,0.01721219097097,-1.403851971016e-10,6.393266149917e-63,844.20389891382
50684.077978276,0.017212190970971,-1.467122058763e-10,8.8904246932577e-63,854.20389891382
50884.077978276,0.017212190970971,-1.5315574559992e-10,1.1485926835301e-62,864.20389891382
51084.077978276,0.017212190970971,-1.5971666535419e-10,1.4155393759376e-62,874.20389891382
51284.077978276,0.017212190970971,-1.6638469519141e-10,1.6871365735822e-62,884.20389891382
51484.077978276,0.017212190970971,-1.7316307860261e-10,1.9603473658838e-62,894.20389891382
51684.077978276,0.017212190970971,-1.8005106056179e-10,2.2318675091173e-62,904.20389891382
51884.077978276,0.017212190970972,-1.870349297674e-10,2.4981555932677e-62,914.20389891382
52084.077978276,0.017212190970972,-1.9410757839887e-10,2.7554697629295e-62,924.20389891382
52284.077978276,0.017212190970972,-2.0128152921483e-10,2.9999108542871e-62,934.20389891382
52484.077978276,0.017212190970972,-2.0853603360528e-10,3.2274716729879e-62,944.20389891382
52684.077978276,0.017212190970972,-2.158786296122e-10,3.4340919952976e-62,954.20389891382
52884.077978276,0.017212190970972,-2.233025590778e-10,3.6157187300189e-62,964.20389891382
53084.077978276,0.017212190970973,-2.3080391385434e-10,3.7683705342348e-62,974.20389891382
53284.077978276,0.017212190970974,-2.3836847534172e-10,3.8882060351774e-62,984.20389891382
53484.077978276,0.017212190970974,-2.4600544132676e-10,3.9715946767472e-62,994.20389891382
53600,0.017212190970974,-2.5045332749174e-10,4.001870684573e-62,1000
