time,average,scaled_flux_surface_left,scaled_flux_surface_right,temperature
0,0,-0,-0,370
0.387420489,8.7309553574846,5.3206160243822e+19,-0,370
0.774840978,11.771336346962,5.3223786281278e+19,4.2555691653139e-198,370
1.2010035159,14.451896459726,5.3219809918112e+19,1.1785356510591e-195,370
1.66978230759,16.931108645386,5.3220377817286e+19,6.3333096869794e-194,370
2.185438978449,19.273068147783,5.322086878789e+19,1.345338800097e-192,370
2.7526613163939,21.542177519286,5.3221215665353e+19,1.4733947176672e-191,370
3.3766058881333,23.782127906666,5.3221489131427e+19,9.5775660024503e-191,370
4.0629449170466,26.021259525558,5.3221716457304e+19,4.0327812278261e-190,370
4.8179178488513,28.278970609559,5.3221910746449e+19,1.1674764523574e-189,370
5.6483880738364,30.569802210847,5.3222079567856e+19,2.4264033199738e-189,370
6.5619053213201,32.905597892941,5.3222228056731e+19,3.7410571916846e-189,370
7.5667742935521,35.296582954559,5.3222360010238e+19,4.0034945674295e-189,370
8.6721301630073,37.7519404827,5.3222478315995e+19,1.7242677111159e-172,370
9.888021619408,40.280162339521,5.322258519584e+19,2.3554357788666e-156,370
11.225502221449,42.889287310848,5.3222682381711e+19,1.7788919559912e-142,370
12.696730883694,45.587072178264,5.3222771244585e+19,2.6486273253931e-130,370
14.315082412163,48.381118689911,5.3222852886327e+19,1.8052843325297e-119,370
16.095269093479,51.278970553908,5.3222928204775e+19,1.0139731260871e-109,370
18.053474442927,54.288189760228,5.3222997940528e+19,7.1938066967747e-101,370
20.20750032732,57.416418430467,5.322306271125e+19,8.88287964759e-93,370
22.576928800152,60.671430384509,5.3223123037242e+19,2.4439836478614e-85,370
25.183300120267,64.061175322262,5.3223179360813e+19,1.8202436848506e-78,370
28.050308572394,67.593817674536,5.3223232061122e+19,4.2906557298893e-72,370
31.204017869733,71.277771609692,5.3223281465706e+19,3.6363696764464e-66,370
34.673098096807,75.121733292475,5.3223327859532e+19,1.2314016573062e-60,370
38.489086346587,79.134711218349,5.3223371492161e+19,1.8202264873934e-55,370
42.686673421346,83.326055252699,5.3223412583493e+19,1.2658505253878e-50,370
47.304019203581,87.705484864597,5.3223451328399e+19,4.4158039493311e-46,370
52.383099564039,92.283116943168,5.3223487900486e+19,8.166599145073e-42,370
57.970087960543,97.069493509759,5.3223522455188e+19,8.4022590776909e-38,370
64.115775196697,102.07560958362,5.3223555132314e+19,5.0167297842852e-34,370
70.876031156467,107.31294141743,5.3223586058162e+19,1.8043404932401e-30,370
78.312312712213,112.79347528784,5.3223615347285e+19,4.0410514935929e-27,370
86.492222423535,118.52973700318,5.3223643103979e+19,5.8054285912437e-24,370
95.490123105988,124.53482227266,5.3223669423535e+19,5.4945678708311e-21,370
105.38781385669,130.82242806884,5.32236943933e+19,3.5098246068692e-18,370
116.27527368246,137.40688510527,5.3223718093591e+19,1.5468132669947e-15,370
128.2514794908,144.30319154473,5.3223740598464e+19,4.7987163198342e-13,370
141.42530587998,151.52704804857,5.3223761976389e+19,1.0675252081025e-10,370
155.91651490808,159.09489427481,5.3223782290826e+19,1.7322856786263e-08,370
171.85684483899,167.02394693121,5.3223801600724e+19,2.0832599492922e-06,370
189.39120776299,175.33223948891,5.3223819960961e+19,0.00018844525866756,370
208.67900697938,184.03866366297,5.3223837422725e+19,0.013001101777997,370
229.89558611742,193.16301276749,5.3223854033846e+19,0.69312469117159,370
253.23382316927,202.72602705493,5.3223869839095e+19,28.90849243766,370
278.90588392629,212.74944115229,5.3223884880443e+19,953.88493023979,370
307.14515075902,223.25603370952,5.3223899197292e+19,25103.157358465,370
338.20834427502,234.26967937566,5.3223912826682e+19,524355.50150531,370
372.37785714263,245.81540315141,5.3223925803473e+19,8238878.0280725,370
409.96432129699,257.91943640525,5.3223938160512e+19,82099419.153978,370
451.30943186679,270.60926954437,5.3223949928779e+19,344851934.79469,370
496.78905349357,283.91370344158,5.3223961137523e+19,1279959235.083,370
546.81663728302,297.86287620744,5.3223971814379e+19,3909170944.7244,370
601.84697945143,312.48824695455,5.3223981985481e+19,10334067156.671,370
662.38035583667,327.8224867791,5.3223991675558e+19,25015471688.116,370
728.96706986044,343.89919703121,5.3224000908029e+19,55728412810.7,370
802.21245528658,360.75234820375,5.3224009705084e+19,115439254936.34,370
882.78237925534,378.4152993723,5.3224018087756e+19,223988630294.02,370
971.40929562097,396.91925106448,5.3224026076001e+19,409416572967.49,370
1068.8989036232,416.29100759411,5.3224033688751e+19,708356949306.52,370
1168.8989036232,435.21247807207,5.3224040481488e+19,1129718370201.2,370
1268.8989036232,453.27106521081,5.3224046448424e+19,1672660821683.8,370
1368.8989036232,470.54536596811,5.3224051744501e+19,2336486594637.7,370
1468.8989036232,487.09806534851,5.3224056487765e+19,3115293863968,370
1568.8989036232,502.97978072892,5.3224060769131e+19,3999330453672.3,370
1668.8989036232,518.23219972184,5.322406465969e+19,4976391738583.8,370
1768.8989036232,532.89044690906,5.3224068215917e+19,6033041199448.3,370
1868.8989036232,546.9848079149,5.322407148334e+19,7155565056837.6,370
1968.8989036232,560.54196512004,5.3224074499152e+19,8330653772758,370
2068.8989036232,573.58587704262,5.3224077294089e+19,9545895961214.6,370
2168.8989036232,586.13840280864,5.3224079893808e+19,10789816053990,370
2268.8989036232,598.21974626813,5.3224082319919e+19,12052338833366,370
2368.8989036232,609.84877306349,5.3224084590762e+19,13324559154087,370
2468.8989036232,621.04323857153,5.3224086722015e+19,14598769800454,370
2568.8989036232,631.81995334108,5.3224088727161e+19,15868383917783,370
2668.8989036232,642.19490469583,5.3224090617862e+19,17127838123056,370
2768.8989036232,652.18334755565,5.3224092404258e+19,18372488062965,370
2868.8989036232,661.79987359004,5.3224094095209e+19,19598503936249,370
2968.8989036232,671.05846506379,5.3224095698488e+19,20802770551364,370
3068.8989036232,679.97253781267,5.322409722095e+19,21982794481484,370
3168.8989036232,688.55497644762,5.3224098668658e+19,23136619547577,370
3268.8989036232,696.81816395205,5.3224100047004e+19,24262751004587,370
3368.8989036232,704.77400718652,5.3224101360793e+19,25360088276262,370
3468.8989036232,712.43395936232,5.322410261433e+19,26427865774280,370
3568.8989036232,719.80904022939,5.3224103811486e+19,27465601172446,370
3668.8989036232,726.90985450426,5.3224104955751e+19,28473050435655,370
3768.8989036232,733.74660891023,5.3224106050284e+19,29450168891348,370
3868.8989036232,740.32912809487,5.3224107097958e+19,30397077654890,370
3968.8989036232,746.66686961522,5.3224108101392e+19,31314034764312,370
4068.8989036232,752.76893812893,5.3224109062982e+19,32201410434032,370
4168.8989036232,758.64409889282,5.3224109984927e+19,33059665895066,370
4268.8989036232,764.30079064475,5.3224110869255e+19,33889335346903,370
4368.8989036232,769.74713792672,5.3224111717837e+19,34691010601142,370
4468.8989036232,774.99096289418,5.322411253241e+19,35465328048044,370
4568.8989036232,780.03979664756,5.3224113314585e+19,36212957623559,370
4668.8989036232,784.90089011567,5.3224114065868e+19,36934593496132,370
4768.8989036232,789.58122451563,5.3224114787663e+19,37630946229640,370
4868.8989036232,794.08752141101,5.3224115481287e+19,38302736211564,370
4968.8989036232,798.42625238682,5.3224116147976e+19,38950688164173,370
5068.8989036232,802.6036483586,5.3224116788894e+19,39575526581576,370
5168.8989036232,806.62570853097,5.3224117405138e+19,40177971957281,370
5268.8989036232,810.49820902004,5.3224117997745e+19,40758737685828,370
5368.8989036232,814.22671115322,5.3224118567697e+19,41318527538441,370
5468.8989036232,817.81656945883,5.3224119115923e+19,41858033626766,370
5568.8989036232,821.27293935779,5.3224119643308e+19,42377934780997,370
5668.8989036232,824.60078456849,5.322412015069e+19,42878895279194,370
5768.8989036232,827.804884236,5.3224120638869e+19,43361563873649,370
5868.8989036232,830.88983979567,5.3224121108607e+19,43826573067959,370
5968.8989036232,833.86008158154,5.322412156063e+19,44274538605141,370
6068.8989036232,836.71987518869,5.3224121995633e+19,44706059132898,370
6168.8989036232,839.47332759899,5.3224122414278e+19,45121716017052,370
6268.8989036232,842.12439307908,5.3224122817199e+19,45522073278440,370
6368.8989036232,844.67687885885,5.3224123205003e+19,45907677632164,370
6468.8989036232,847.13445059888,5.3224123578272e+19,46279058611227,370
6568.8989036232,849.50063765455,5.3224123937562e+19,46636728759261,370
6668.8989036232,851.77883814429,5.3224124283407e+19,46981183879331,370
6768.8989036232,853.97232382957,5.3224124616319e+19,47312903327765,370
6868.8989036232,856.08424481323,5.3224124936789e+19,47632350343658,370
6968.8989036232,858.11763406325,5.3224125245289e+19,47939972406096,370
7068.8989036232,860.07541176828,5.3224125542271e+19,48236201612429,370
7168.8989036232,861.96038953118,5.3224125828171e+19,48521455071918,370
7268.8989036232,863.77527440665,5.3224126103405e+19,48796135310037,370
7368.8989036232,865.52267278879,5.3224126368376e+19,49060630679427,370
7468.8989036232,867.20509415403,5.3224126623469e+19,49315315774194,370
7568.8989036232,868.82495466488,5.3224126869056e+19,49560551844777,370
7668.8989036232,870.3845806398,5.3224127105491e+19,49796687211110,370
7768.8989036232,871.88621189391,5.3224127333119e+19,50024057672183,370
7868.8989036232,873.33200495555,5.3224127552269e+19,50242986910488,370
7968.8989036232,874.72403616326,5.3224127763259e+19,50453786890080,370
8068.8989036232,876.06430464754,5.3224127966393e+19,50656758247292,370
8168.8989036232,877.35473520178,5.3224128161965e+19,50852190673294,370
8268.8989036232,878.59718104645,5.3224128350257e+19,51040363287915,370
8368.8989036232,879.79342649049,5.3224128531541e+19,51221545004266,370
8468.8989036232,880.94518949372,5.3224128706079e+19,51395994883841,370
8568.8989036232,882.054124134,5.3224128874122e+19,51563962481876,370
8668.8989036232,883.12182298265,5.3224129035912e+19,51725688182845,370
8768.8989036232,884.14981939154,5.3224129191683e+19,51881403526022,370
8868.8989036232,885.13958969512,5.3224129341659e+19,52031331521138,370
8968.8989036232,886.0925553306,5.3224129486055e+19,52175686954174,370
9068.8989036232,887.01008487925,5.3224129625079e+19,52314676683394,370
9168.8989036232,887.89349603187,5.3224129758933e+19,52448499925762,370
9268.8989036232,888.74405748109,5.3224129887807e+19,52577348533885,370
9368.8989036232,889.56299074336,5.3224130011888e+19,52701407263693,370
9468.8989036232,890.3514719132,5.3224130131353e+19,52820854033024,370
9568.8989036232,891.11063335215,5.3224130246375e+19,52935860171357,370
9668.8989036232,891.84156531854,5.322413035712e+19,53046648524599,370
9768.8989036232,892.54531752116,5.3224130463745e+19,53153257868632,370
9868.8989036232,893.22290064096,5.3224130566405e+19,53255903774052,370
9968.8989036232,893.87528777644,5.3224130665247e+19,53354733481611,370
10068.898903623,894.50341584132,5.3224130760413e+19,53449888807598,370
10168.898903623,895.10818691018,5.322413085204e+19,53541506306757,370
10268.898903623,895.69046951398,5.322413094026e+19,53629717466263,370
10368.898903623,896.25109988736,5.3224131025199e+19,53714648892802,370
10468.898903623,896.7908831696,5.3224131106979e+19,53796422492857,370
10568.898903623,897.31059456091,5.3224131185718e+19,53875155646448,370
10668.898903623,897.81098043566,5.3224131261528e+19,53950961374550,370
10768.898903623,898.29275941433,5.322413133452e+19,54023948500416,370
10868.898903623,898.75662339549,5.3224131404797e+19,54094221804993,370
10968.898903623,899.20323854946,5.3224131472461e+19,54161882176666,370
11068.898903623,899.63324627502,5.3224131537609e+19,54227026755502,370
11168.898903623,900.04726412055,5.3224131600334e+19,54289749072204,370
11268.898903623,900.44588667086,5.3224131660727e+19,54350139181949,370
11368.898903623,900.82968640113,5.3224131718873e+19,54408283793315,370
11468.898903623,901.19921449903,5.3224131774858e+19,54464266392438,370
11568.898903623,901.55500165633,5.3224131828761e+19,54518167362607,370
11668.898903623,901.89755883097,5.3224131880659e+19,54570064099432,370
11768.898903623,902.22737798095,5.3224131930627e+19,54620031121765,370
11868.898903623,902.54493277075,5.3224131978738e+19,54668140178517,370
11968.898903623,902.85067925166,5.3224132025059e+19,54714460351523,370
12068.898903623,903.14505651665,5.3224132069658e+19,54759058154603,370
12168.898903623,903.42848733101,5.3224132112598e+19,54801997628951,370
12268.898903623,903.70137873949,5.3224132153942e+19,54843340434996,370
12368.898903623,903.96412265087,5.3224132193748e+19,54883145940852,370
12468.898903623,904.21709640074,5.3224132232074e+19,54921471307491,370
12568.898903623,904.46066329348,5.3224132268975e+19,54958371570762,370
12668.898903623,904.69517312397,5.3224132304504e+19,54993899720363,370
12768.898903623,904.92096267994,5.3224132338711e+19,55028106775881,370
12868.898903623,905.13835622565,5.3224132371647e+19,55061041860016,370
12968.898903623,905.34766596756,5.3224132403358e+19,55092752269082,370
13068.898903623,905.54919250273,5.3224132433889e+19,55123283540894,370
13168.898903623,905.74322525049,5.3224132463286e+19,55152679520131,370
13268.898903623,905.93004286808,5.3224132491589e+19,55180982421276,370
13368.898903623,906.10991365086,5.322413251884e+19,55208232889212,370
13468.898903623,906.2830959176,5.3224132545077e+19,55234470057573,370
13568.898903623,906.44983838148,5.3224132570339e+19,55259731604924,370
13668.898903623,906.61038050725,5.3224132594661e+19,55284053808857,370
13768.898903623,906.76495285513,5.3224132618079e+19,55307471598073,370
13868.898903623,906.91377741197,5.3224132640627e+19,55330018602528,370
13968.898903623,907.05706790999,5.3224132662335e+19,55351727201723,370
14068.898903623,907.19503013377,5.3224132683237e+19,55372628571191,370
14168.898903623,907.32786221577,5.3224132703361e+19,55392752727262,370
14268.898903623,907.45575492089,5.3224132722737e+19,55412128570158,370
14368.898903623,907.57889192041,5.3224132741393e+19,55430783925494,370
14468.898903623,907.69745005576,5.3224132759354e+19,55448745584231,370
14568.898903623,907.81159959252,5.3224132776648e+19,55466039341144,370
14668.898903623,907.92150446494,5.3224132793299e+19,55482690031863,370
14768.898903623,908.02732251134,5.3224132809331e+19,55498721568538,370
14868.898903623,908.12920570081,5.3224132824766e+19,55514156974168,370
14968.898903623,908.22730035145,5.3224132839628e+19,55529018415669,370
15068.898903623,908.32174734052,5.3224132853937e+19,55543327235701,370
15168.898903623,908.41268230675,5.3224132867713e+19,55557103983318,370
15268.898903623,908.5002358451,5.3224132880978e+19,55570368443475,370
15368.898903623,908.58453369436,5.3224132893749e+19,55583139665437,370
15468.898903623,908.66569691772,5.3224132906046e+19,55595435990141,370
15568.898903623,908.74384207661,5.3224132917885e+19,55607275076526,370
15668.898903623,908.81908139811,5.3224132929284e+19,55618673926896,370
15768.898903623,908.89152293614,5.3224132940259e+19,55629648911335,370
15868.898903623,908.96127072659,5.3224132950826e+19,55640215791217,370
15968.898903623,909.0284249368,5.3224132960999e+19,55650389741836,370
16068.898903623,909.09308200936,5.3224132970795e+19,55660185374200,370
16168.898903623,909.15533480062,5.3224132980227e+19,55669616756017,370
16268.898903623,909.21527271409,5.3224132989307e+19,55678697431890,370
16368.898903623,909.27298182877,5.322413299805e+19,55687440442776,370
16468.898903623,909.3285450228,5.3224133006468e+19,55695858344705,370
16568.898903623,909.38204209252,5.3224133014573e+19,55703963226820,370
16668.898903623,909.433549867,5.3224133022377e+19,55711766728730,370
16768.898903623,909.48314231844,5.322413302989e+19,55719280057232,370
16868.898903623,909.53089066834,5.3224133037124e+19,55726514002400,370
16968.898903623,909.57686348985,5.3224133044089e+19,55733478953083,370
17068.898903623,909.62112680622,5.3224133050795e+19,55740184911824,370
17168.898903623,909.6637441856,5.3224133057252e+19,55746641509223,370
17268.898903623,909.70477683236,5.3224133063468e+19,55752858017769,370
17368.898903623,909.74428367497,5.3224133069453e+19,55758843365157,370
17468.898903623,909.78232145067,5.3224133075216e+19,55764606147106,370
17568.898903623,909.81894478686,5.3224133080765e+19,55770154639704,370
17668.898903623,909.85420627968,5.3224133086107e+19,55775496811298,370
17768.898903623,909.88815656943,5.322413309125e+19,55780640333929,370
17868.898903623,909.92084441335,5.3224133096203e+19,55785592594357,370
17968.898903623,909.95231675566,5.3224133100971e+19,55790360704667,370
18068.898903623,909.98261879494,5.3224133105562e+19,55794951512480,370
18168.898903623,910.01179404904,5.3224133109982e+19,55799371610789,370
18268.898903623,910.03988441762,5.3224133114237e+19,55803627347431,370
18368.898903623,910.06693024228,5.3224133118335e+19,55807724834195,370
18468.898903623,910.09297036451,5.322413312228e+19,55811669955607,370
18568.898903623,910.11804218149,5.3224133126078e+19,55815468377375,370
18668.898903623,910.14218169976,5.3224133129736e+19,55819125554529,370
18768.898903623,910.16542358698,5.3224133133257e+19,55822646739254,370
18868.898903623,910.18780122167,5.3224133136647e+19,55826036988435,370
18968.898903623,910.20934674116,5.3224133139911e+19,55829301170913,370
19068.898903623,910.23009108776,5.3224133143054e+19,55832443974485,370
19168.898903623,910.2500640532,5.322413314608e+19,55835469912631,370
19268.898903623,910.26929432136,5.3224133148993e+19,55838383330996,370
19368.898903623,910.28780950956,5.3224133151799e+19,55841188413635,370
19468.898903623,910.30563620811,5.3224133154499e+19,55843889189017,370
19568.898903623,910.32280001861,5.32241331571e+19,55846489535814,370
19668.898903623,910.33932559062,5.3224133159603e+19,55848993188469,370
19768.898903623,910.35523665713,5.3224133162014e+19,55851403742560,370
19868.898903623,910.3705560686,5.3224133164335e+19,55853724659961,370
19968.898903623,910.38530582579,5.3224133166569e+19,55855959273820,370
20068.898903623,910.39950711137,5.3224133168721e+19,55858110793341,370
20168.898903623,910.41318032034,5.3224133170792e+19,55860182308391,370
20268.898903623,910.42634508928,5.3224133172787e+19,55862176793943,370
20368.898903623,910.43902032461,5.3224133174707e+19,55864097114344,370
20468.898903623,910.45122422968,5.3224133176556e+19,55865946027432,370
20568.898903623,910.46297433099,5.3224133178336e+19,55867726188494,370
20668.898903623,910.47428750327,5.322413318005e+19,55869440154078,370
20768.898903623,910.48517999379,5.3224133181701e+19,55871090385669,370
20868.898903623,910.49566744566,5.3224133183289e+19,55872679253222,370
20968.898903623,910.50576492029,5.3224133184819e+19,55874209038563,370
21068.898903623,910.51548691903,5.3224133186292e+19,55875681938669,370
21168.898903623,910.524847404,5.322413318771e+19,55877100068824,370
21268.898903623,910.53385981813,5.3224133189076e+19,55878465465652,370
21368.898903623,910.54253710449,5.322413319039e+19,55879780090047,370
21468.898903623,910.55089172485,5.3224133191656e+19,55881045829987,370
21568.898903623,910.55893567757,5.3224133192875e+19,55882264503246,370
21668.898903623,910.56668051489,5.3224133194048e+19,55883437860001,370
21768.898903623,910.57413735943,5.3224133195178e+19,55884567585353,370
21868.898903623,910.58131692025,5.3224133196265e+19,55885655301738,370
21968.898903623,910.58822950818,5.3224133197313e+19,55886702571265,370
22068.898903623,910.59488505064,5.3224133198321e+19,55887710897954,370
22168.898903623,910.6012931059,5.3224133199292e+19,55888681729898,370
22268.898903623,910.6074628768,5.3224133200227e+19,55889616461344,370
22368.898903623,910.61340322398,5.3224133201127e+19,55890516434691,370
22468.898903623,910.61912267859,5.3224133201993e+19,55891382942425,370
22568.898903623,910.62462945454,5.3224133202827e+19,55892217228966,370
22668.898903623,910.62993146032,5.3224133203631e+19,55893020492464,370
22768.898903623,910.63503631034,5.3224133204404e+19,55893793886514,370
22868.898903623,910.63995133585,5.3224133205149e+19,55894538521814,370
