time,scaled_flux_surface_left,scaled_flux_surface_right,scaled_implanted_deuterium,scaled_mobile_deuterium,scaled_trapped_deuterium_1,scaled_trapped_deuterium_2,scaled_trapped_deuterium_3,scaled_trapped_deuterium_4,scaled_trapped_deuterium_5,scaled_trapped_deuterium_intrinsic,temperature,total_flux
0,-0,-0,0,0,0,0,0,0,0,0,370,-0
1e-08,166947752544.88,-0,5.322406708152e+19,532976742491.54,1322213807.3334,820823208.90907,560307340.22765,840518565.85759,222918718.90639,690091.47161284,370,166947752544.88
2.1e-08,734690607860.92,-0,5.322406708152e+19,1122244220393.1,3831564926.9807,2378620959.2798,1623689758.8738,2435927756.9968,646046282.61148,1999801.0038455,370,734690607860.92
3.31e-08,1720455864168.7,-0,5.322406708152e+19,1777906499018.4,8292421391.8458,5147925312.5144,3514082572.3953,5265580962.205,1396514735.1563,4328206.8265962,370,1720455864168.7
4.641e-08,3080912364826.1,-0,5.322406708152e+19,2511046314250.5,15450375653.9,9591559313.8814,6547422818.1149,9794420005.2367,2597633947.2891,8064631.4402161,370,3080912364826.1
6.1051e-08,4772632594071.8,-0,5.322406708152e+19,3332700547276.9,26105228550.317,16205988441.103,11086791128.716,16556576145.986,4391063914.4222,13656557.13418,370,4772632594071.8
7.71561e-08,6763094914105.8,-0,5.322406708152e+19,4253260650666.5,41302954832.867,25640565122.1,17536130392.916,26202407485.813,6949289814.9618,21648156.817058,370,6763094914105.8
9.487171e-08,9020402710553.7,-0,5.322406708152e+19,5282505517799,62319338812.664,38687289826.501,26445458635.72,39534394172.959,10485141982.3,32709876.806931,370,9020402710553.7
1.14358881e-07,11505541211862,-0,5.322406708152e+19,6429738494274.8,90721371442.866,56318935589.137,38482352736.919,57542134038.354,15261077296.825,47667421.590038,370,11505541211862
1.357947691e-07,14171812186147,-0,5.322406708152e+19,7703809326788.3,128429985447,79727995816.916,54462166009.386,81440664072.932,21599342643.312,67533526.206125,370,14171812186147
1.5937424601e-07,16968848139136,-0,5.322406708152e+19,9113052515341.7,177789558957.72,110369833109.36,75378854752.433,112714070461.75,29893540976.601,93544008.221308,370,16968848139136
1.85311670611e-07,19848137336058,-0,5.322406708152e+19,10665160078912,241646816969.9,150011660117.86,102438932737.61,153165482808,40621890574.659,127199002.93799,370,19848137336058
2.138428376721e-07,22768188425584,-0,5.322406708152e+19,12367013023751,322814064024.72,200788330135,137099749404.89,204976059593.42,54362868908.699,170310032.78339,370,22768188425584
2.4522712143931e-07,25698512359039,-0,5.322406708152e+19,14224494921534,425648974035.08,265265670782.71,181112798303.47,270765832442.64,71811349497.26,225053486.34346,370,25698512359039
2.7974983358324e-07,28622150447784,-0,5.322406708152e+19,16242307435058,555150828307.37,345900373580.6,236572591380.24,353672006412.56,93799368372.188,294031073.91804,370,28622150447784
3.1772481694157e-07,31536676917631,-0,5.322406708152e+19,18423799759363,717187353457.14,446582037522.13,305457034718.32,457428225007.9,121317146405.14,380336012.07766,370,31536676917631
3.5949729863572e-07,34453684277209,-0,5.322406708152e+19,20770814001764,918675382059.39,571697940945.31,390922412631.94,586455317893.05,155537157025.4,487631105.59699,370,34453684277209
4.0544702849929e-07,37396860326761,-0,5.322406708152e+19,23283539733527,1167759387137.1,726339389377.28,496505170839.43,745966206552.55,197841948847.95,620232562.65379,370,37396860326761
4.5599173134922e-07,40398907176096,-0,5.322406708152e+19,25960364936586,1473992205045.1,916450023049.18,626285599410.45,942078067315.9,249853893068.49,783202773.34471,370,40398907176096
5.1159090448415e-07,43497689757347,-0,5.322406708152e+19,28797707943601,1848528928629.1,1148959840167.8,785002931264.1,1181935134185.2,313467752701.19,982452637.05833,370,43497689757347
5.7274999493256e-07,46732080809420,-0,5.322406708152e+19,31789816206230,2304334994790.2,1431919539145,978155974344.92,1473841415150.8,390885881029.14,1224852480.2167,370,46732080809420
6.4002499442582e-07,50137966532526,-0,5.322406708152e+19,34928523357920,2856407197489,1774639673462,1212101476558.4,1827401986276.2,484655695013.75,1518348414.3735,370,50137966532526
7.140274938684e-07,53744797641105,-0,5.322406708152e+19,38202966053172,3522004488063.1,2187834668098.9,1494153709769.9,2253670655339.5,597708838010.74,1872088601.2182,370,53744797641105
7.9543024325524e-07,57572937420570,-0,5.322406708152e+19,41599275448019,4320509439660.2,2683769316528.7,1832684953184.5,2765303830910.9,733401988264.96,2296581478.3805,370,57572937420570
8.8497326758076e-07,61631901469082,-0,5.322406708152e+19,45100275198800,5274573854794.7,3276404019670.8,2237224817819.2,3376702815563.6,895554597303.87,2801012660.6435,370,61631901469082
9.8347059433884e-07,65919432555928,-0,5.322406708152e+19,48685216864391,6409690129365.3,3981533155648.5,2718554768437.6,4104161411889.6,1088488037370.1,3400127731.1609,370,65919432555928
1.0918176537727e-06,70421247602574,-0,5.322406708152e+19,52329623874948,7754468686568.4,4816530571116.4,3288793860393.9,4965998919515.6,1317060874318,4109551936.7683,370,70421247602574
1.21099941915e-06,75111254984571,-0,5.322406708152e+19,56005281495655,9340819522910.1,5801384449042.3,3961471205171.9,5982659521313,1586695226396.9,4946319289.6695,370,75111254984571
1.342099361065e-06,79952078772708,-0,5.322406708152e+19,59680429111134,11204107264729,6958116351901.9,4751223512383.4,7176805258921.4,1903401422819.3,5929201541.0853,370,79952078772708
1.4863092971715e-06,84895827109936,-0,5.322406708152e+19,63320196535339,13383212697793,8310888579552,5674700433811.3,8573352976962.4,2273787801946.7,7078801470.1366,370,84895827109936
1.6449402268886e-06,89885162383972,-0,5.322406708152e+19,66887312953007,15920561266360,9886048012613.1,6749945728536.3,10199491671268,2705065312311.9,8417609028.8984,370,89885162383972
1.8194342495775e-06,94854819800589,-0,5.322406708152e+19,70343100063175,18862076223574,11712106917350,7996444553474.2,12084652078773,3205039447380.7,9969995056.3185,370,94854819800589
2.0113776745353e-06,99733740358749,-0,5.322406708152e+19,73648739906489,22257074213127,13819681863120,9435104603939.8,14260439582821,3782092450987,11762171446.854,370,99733740358749
2.2225154419888e-06,1.044479235164e+14,-0,5.322406708152e+19,76766782146665,26158115696879,16241402283491,11088202331324,16760538255518,4445157867856.6,13822127935.161,370,1.044479235164e+14
2.4547669861877e-06,1.0892398094417e+14,-0,5.322406708152e+19,79662825161520,30620833381636,19011804500251,12979313867699,19620600825464,5203691361324.6,16179559177.083,370,1.0892398094417e+14
2.7102436848064e-06,1.1309321870391e+14,-0,5.322406708152e+19,82307271645193,35703773478359,22167233381188,15133249130845,22878146877474,6067643714300.4,18865801101.4,370,1.1309321870391e+14
2.9912680532871e-06,1.1689592639392e+14,-0,5.322406708152e+19,84677026230034,41468295969535,25745780503724,17576010080824,26572498873078,7047443860902.9,21913801087.698,370,1.1689592639392e+14
3.3003948586158e-06,1.2028543821887e+14,-0,5.322406708152e+19,86756975852955,47978589171000,29787293223661,20334797086917,30744791425229,8154001346256.2,25358151092.101,370,1.2028543821887e+14
3.6404343444774e-06,1.232314758358e+14,-0,5.322406708152e+19,88541080680820,55301858101551,34333491623712,23438088824266,35438092210483,9398738394299.3,29235260832.958,370,1.232314758358e+14
4.0144777789251e-06,1.2572230344194e+14,-0,5.322406708152e+19,90032911970473,63508436778341,39428229950472,26915820760364,40697682448760,10793664295422,33583501872.829,370,1.2572230344194e+14
4.4259255568176e-06,1.2776533082663e+14,-0,5.322406708152e+19,91245509106678,72673249252476,45117929900982,30799680930309,46571478205942,12351487142527,38443682691.281,370,1.2776533082663e+14
4.8785181124994e-06,1.2938598507102e+14,-0,5.322406708152e+19,92200493102385,82876261653945,51452203097457,35123534849162,53110691422523,14085789146206,43859602847.248,370,1.2938598507102e+14
5.3763699237493e-06,1.3062491266603e+14,-0,5.322406708152e+19,92926463863622,94203864432954,58484382154162,39923990610859,60370675896088,16011251002573,49878786954.113,370,1.3062491266603e+14
5.9240069161242e-06,1.3153382934949e+14,-0,5.322406708152e+19,93456811986207,1.0675042334097e+14,66273189068983,45241035532037,68411905966685,18143911455992,56553310633.179,370,1.3153382934949e+14
6.5264076077367e-06,1.3217055282006e+14,-0,5.322406708152e+19,93827174345079,1.2062009147229e+14,74883334111425,51118808095058,77301132327223,20501473838137,63940795075.111,370,1.3217055282006e+14
7.1890483685103e-06,1.3259388406092e+14,-0,5.322406708152e+19,94072833851387,1.3592871970588e+14,84386756275786,57606106382195,87112604285029,23103630230944,72105434036.526,370,1.3259388406092e+14
7.9179532053614e-06,1.3285901312538e+14,-0,5.322406708152e+19,94226386510794,1.5280570511933e+14,94863791352580,64757915595209,97929253630261,25972375447106,81119033536.203,370,1.3285901312538e+14
8.7197485258975e-06,1.3301400841274e+14,-0,5.322406708152e+19,94315960676023,1.7139587536363e+14,1.0640434951495e+14,72635665108884,1.0984390205537e+14,29132327256660,91062018741.85,370,1.3301400841274e+14
9.6017233784872e-06,1.3309772825766e+14,-0,5.322406708152e+19,94364176026055,1.9186121772728e+14,1.1910899164697e+14,81308020034192,1.2296036923233e+14,32611020266471,102024384029.53,370,1.3309772825766e+14
1.0571895716336e-05,1.33139219154e+14,-0,5.322406708152e+19,94387892344268,2.1438249682194e+14,1.330899346971e+14,90851588980377,1.37394509599e+14,36439180892252,114106581926.55,370,1.33139219154e+14
1.163908528797e-05,1.331583992919e+14,-0,5.322406708152e+19,94398653536177,2.3916080297425e+14,1.4847201332254e+14,1.0135158859409e+14,1.5327520532783e+14,40650990709445,127420422553.66,370,1.331583992919e+14
1.2812993816767e-05,1.3316763044251e+14,-0,5.322406708152e+19,94403618019404,2.6641911633619e+14,1.6539365103398e+14,1.1290250959297e+14,1.7074536738548e+14,45284351949960,142089804207.68,370,1.3316763044251e+14
1.4104293198443e-05,1.3317369745471e+14,-0,5.322406708152e+19,94406711934789,2.9640402267083e+14,1.84007925214e+14,1.2560884498064e+14,1.8996303727578e+14,50381179701695,157923211659.43,370,1.3317369745471e+14
1.5524722518288e-05,1.3317975202983e+14,-0,5.322406708152e+19,94409756640610,3.2938750774056e+14,2.0448368148921e+14,1.395858509703e+14,2.1110253442075e+14,55987706211997,175225508667.21,370,1.3317975202983e+14
1.7087194770116e-05,1.331869092467e+14,-0,5.322406708152e+19,94413393627472,3.656692053989e+14,2.2700692904636e+14,1.5496049974981e+14,2.3435589875502e+14,62154863486353,194214766915.36,370,1.331869092467e+14
1.8805914247128e-05,1.3319535840804e+14,-0,5.322406708152e+19,94417727842937,4.0557890936812e+14,2.5178239994627e+14,1.7187254393952e+14,2.5993450035761e+14,68938710187999,215086505659.57,370,1.3319535840804e+14
2.0696505671841e-05,1.3320500573862e+14,-0,5.322406708152e+19,94422699847241,4.4947944902556e+14,2.7903533439081e+14,1.9047573525686e+14,2.880708824986e+14,76400920442843,238038983506.82,370,1.3320500573862e+14
2.2776156239025e-05,1.3321576393332e+14,-0,5.322406708152e+19,94428253438882,4.9776993230985e+14,3.0901349388632e+14,2.1093919873511e+14,3.1902084001817e+14,84609335058208,263283883134.23,370,1.3321576393332e+14
2.5063771862927e-05,1.3322763159193e+14,-0,5.322406708152e+19,94434381594300,5.508893580546e+14,3.4198940374077e+14,2.3344896348324e+14,3.5306573448886e+14,93638575540203,291051593659.78,370,1.3322763159193e+14
2.758014904922e-05,1.3324068117241e+14,-0,5.322406708152e+19,94441119427647,6.0932060823076e+14,3.7826283140287e+14,2.5820965443312e+14,3.905150528687e+14,1.0357072268871e+14,321594576456.61,370,1.3324068117241e+14
3.0348163954142e-05,1.3325502742633e+14,-0,5.322406708152e+19,94448525845469,6.7359484279793e+14,4.1816351473395e+14,2.8544635469396e+14,4.3170922419279e+14,1.1449606362821e+14,355190142472.54,370,1.3325502742633e+14
3.3392980349556e-05,1.3327080571248e+14,-0,5.322406708152e+19,94456670917244,7.4429633149756e+14,4.6205416154001e+14,3.1540665306548e+14,4.7702271630833e+14,1.2651391311053e+14,392143156832.28,370,1.3327080571248e+14
3.6742278384512e-05,1.3328816388332e+14,-0,5.322406708152e+19,94465631096768,8.2206776573488e+14,5.1033374711221e+14,3.4836289498804e+14,5.2686744030303e+14,1.3973351642269e+14,432788881591.62,370,1.3328816388332e+14
4.0426506222963e-05,1.3330726216356e+14,-0,5.322406708152e+19,94475489065228,9.0761609403743e+14,5.6344113682083e+14,3.8461465527739e+14,5.8169649515559e+14,1.5427504252701e+14,477503594205.51,370,1.3330726216356e+14
4.4479156845259e-05,1.3332827562105e+14,-0,5.322406708152e+19,94486335062852,1.0017189613535e+15,6.2185908357203e+14,4.2449146706837e+14,6.4200828284093e+14,1.7027067545161e+14,526688906060.66,370,1.3332827562105e+14
4.8937072529785e-05,1.3335139669775e+14,-0,5.322406708152e+19,94498268245243,1.1052317648508e+15,6.8611860795472e+14,4.6835581158349e+14,7.0835103933797e+14,1.8786581598482e+14,580789428971.61,370,1.3335139669775e+14
5.3840779782764e-05,1.3337683734994e+14,-0,5.322406708152e+19,94511397801370,1.2190954282863e+15,7.5680382449141e+14,5.166064126088e+14,7.8132781635257e+14,2.072204029063e+14,640295300368.91,370,1.3337683734994e+14
5.923485776104e-05,1.3340483107001e+14,-0,5.322406708152e+19,94525843989573,1.3443449525298e+15,8.3455724970482e+14,5.6968185985552e+14,8.6160196110861e+14,2.2851036631367e+14,705746073198.41,370,1.3340483107001e+14
6.5168343537144e-05,1.3343563505152e+14,-0,5.322406708152e+19,94541739241211,1.4821188202453e+15,9.2008564044616e+14,6.2806459427478e+14,9.4990314382836e+14,2.5192922620491e+14,777735415191.47,370,1.3343563505152e+14
7.1695177890858e-05,1.3346953260379e+14,-0,5.322406708152e+19,94559229392019,1.6336693402295e+15,1.0141664155489e+15,6.9228529155806e+14,1.0470339875473e+15,2.7768985080937e+14,856916436343.01,370,1.3346953260379e+14
7.8874695679944e-05,1.3350683584283e+14,-0,5.322406708152e+19,94578475052797,1.8003740253012e+15,1.1176547190959e+15,7.6292768361565e+14,1.1538773603891e+15,3.0602639061347e+14,944007607818.87,370,1.3350683584283e+14
8.6772165247939e-05,1.3354788867473e+14,-0,5.322406708152e+19,94599653130617,1.983748106958e+15,1.2314911894134e+15,8.4063386176916e+14,1.2714043964207e+15,3.3719640561762e+14,1039799293313.9,370,1.3354788867473e+14
9.5459381772733e-05,1.3359307009905e+14,-0,5.322406708152e+19,94622958507814,2.1854583002664e+15,1.3567105041363e+15,9.261101097436e+14,1.4006833178229e+15,3.7148320511402e+14,1145160939341,370,1.3359307009905e+14
0.00010501531995001,1.3364279786774e+14,-0,5.322406708152e+19,94648605900297,2.4073379437511e+15,1.4944507789267e+15,1.0201333193289e+15,1.5428891383039e+15,4.0919842118462e+14,1261048984405.3,370,1.3364279786774e+14
0.00011552685194501,1.3369753254177e+14,-0,5.322406708152e+19,94676831914620,2.6514036514428e+15,1.6459639048879e+15,1.1235580468339e+15,1.6993143357076e+15,4.5068483924408e+14,1388515556574.7,370,1.3369753254177e+14
0.00012708953713951,1.337577819921e+14,-0,5.322406708152e+19,94707897325848,2.9198736279294e+15,1.8126269183699e+15,1.2373242742557e+15,1.8713805904431e+15,4.9631951125577e+14,1528718037250.1,370,1.337577819921e+14
0.00013980849085346,1.3382410639786e+14,-0,5.322406708152e+19,94742089602696,3.2151878121941e+15,1.9959545060774e+15,1.3624659454174e+15,2.060651696028e+15,5.4651717981048e+14,1682929577306.2,370,1.3382410639786e+14
0.0001537993399388,1.3389712380141e+14,-0,5.322406708152e+19,94779725707914,3.5400300325301e+15,2.1976127586308e+15,1.5001203543208e+15,2.2688477585702e+15,6.0173404405179e+14,1852550660668.2,370,1.3389712380141e+14
0.00016918927393268,1.3397751628836e+14,-0,5.322406708152e+19,94821155206728,3.8973523728994e+15,2.4194342969832e+15,1.6515384706248e+15,2.4978608136073e+15,6.6247190150721e+14,2039121819990.3,370,1.3397751628836e+14
0.00018611820132595,1.3406603687034e+14,-0,5.322406708152e+19,94866763720149,4.2904019709805e+15,2.6634349084131e+15,1.8180962955796e+15,2.749772001465e+15,7.2928270326284e+14,2244337619502.1,370,1.3406603687034e+14
0.00020474002145855,1.341635171588e+14,-0,5.322406708152e+19,94916976764930,4.7227504899576e+15,2.9318318423636e+15,2.0013073509631e+15,3.0268704562838e+15,8.0277356362965e+14,2470062031879.6,370,1.341635171588e+14
0.0002252240236044,1.3427087593179e+14,-0,5.322406708152e+19,94972264027813,5.1983265300601e+15,3.2270639312634e+15,2.2028364139054e+15,3.3316740791719e+15,8.8361226950987e+14,2718345347517.8,370,1.3427087593179e+14
0.00024775642596484,1.3438912871029e+14,-0,5.322406708152e+19,95033144128456,5.7214512721412e+15,3.5518137177844e+15,2.4245146210959e+15,3.6669523828989e+15,9.7253333916842e+14,2991442769885.5,370,1.3438912871029e+14
0.00027254206856133,1.3451939847894e+14,-0,5.322406708152e+19,95100189933251,6.2968776744132e+15,3.9090317878898e+15,2.6683560788712e+15,4.0357516138637e+15,1.0703446849731e+15,3291834863972.2,370,1.3451939847894e+14
0.00029980627541746,1.3466292770683e+14,-0,5.322406708152e+19,95174034491534,6.9298335750976e+15,4.3019635286627e+15,2.936576128464e+15,4.4414223774505e+15,1.1779349400726e+15,3622250042396.7,370,1.3466292770683e+14
0.00032979690295921,1.3482109184897e+14,-0,5.322406708152e+19,95255377676336,7.6260690883138e+15,4.7341785513726e+15,3.2316114305481e+15,4.8876500151242e+15,1.2962815148795e+15,3985689291256.5,370,1.3482109184897e+14
0.00036278659325513,1.3499541453901e+14,-0,5.322406708152e+19,95344993624787,8.3919087186966e+15,5.2096030439258e+15,3.5561420493999e+15,5.3784880058043e+15,1.4264594556385e+15,4385453357761.4,370,1.3499541453901e+14
0.00039907525258064,1.35187584719e+14,-0,5.322406708152e+19,95443739088170,9.2343086615709e+15,5.732555342515e+15,3.913115734548e+15,5.9183946908604e+15,1.5696511844719e+15,4825172643014.8,370,1.35187584719e+14
0.0004389927778387,1.3539947599434e+14,-0,5.322406708152e+19,95552562819584,1.0160919801117e+16,6.3077850405909e+15,4.3057746170425e+15,6.5122736511378e+15,1.7271572080008e+15,5308840067226.7,370,1.3539947599434e+14
0.00048290205562257,1.3563316855346e+14,-0,5.322406708152e+19,95672516148479,1.1180156968637e+16,6.9405159841267e+15,4.7376845585544e+15,7.1655180962936e+15,1.900407890094e+15,5840847200317,370,1.3563316855346e+14
0.00053120226118483,1.3589097405304e+14,-0,5.322406708152e+19,95804764916847,1.2301275077286e+16,7.6364935358254e+15,5.2127674145078e+15,7.8840596615086e+15,2.0909763935218e+15,6426023979116.4,370,1.3589097405304e+14
0.00058433248730331,1.3617546394476e+14,-0,5.322406708152e+19,95950602982473,1.3534452808817e+16,8.4020365271952e+15,5.7353364975254e+15,8.6744220448047e+15,2.3005929054145e+15,7069682363133.7,370,1.3617546394476e+14
0.00064277573603365,1.3648950181038e+14,-0,5.322406708152e+19,96111467531519,1.4890884592354e+16,9.24409436003e+15,6.3101355548034e+15,9.5437799580852e+15,2.5311602720043e+15,7777664313955.2,370,1.3648950181038e+14
0.00070706330963701,1.3683628038358e+14,-0,5.322406708152e+19,96288956487590,1.6382881684695e+16,1.01703097563e+16,6.9423816024597e+15,1.0500023913295e+16,2.7847711809314e+15,8556394521927,370,1.3683628038358e+14
0.00077777964060071,1.3721936407419e+14,-0,5.322406708152e+19,96484848358720,1.8023983238399e+16,1.1189087709554e+16,7.6378119926184e+15,1.1551831409414e+16,3.063727041153e+15,9412938338117.1,370,1.3721936407419e+14
0.00085556760466078,1.3764273797926e+14,-0,5.322406708152e+19,96701124930403,1.9829078707766e+16,1.2309671245156e+16,8.4027361284648e+15,1.2708745149274e+16,3.3705587272703e+15,10355023242054,370,1.3764273797926e+14
0.00094113436512686,1.3811086457618e+14,-0,5.322406708152e+19,96939997293270,2.1814540827185e+16,1.3542224609192e+16,9.2440922497699e+15,1.3981258926006e+16,3.7080493579624e+15,11391218491767,370,1.3811086457618e+14
0.0010352578016395,1.3862874955471e+14,-0,5.322406708152e+19,97203935798078,2.3998373763089e+16,1.4897924664877e+16,1.0169509821328e+16,1.5380911983205e+16,4.0792593217849e+15,12530928331101,370,1.3862874955471e+14
