time,scaled_flux_surface_left,scaled_flux_surface_right,scaled_implanted_deuterium,scaled_mobile_deuterium,scaled_trapped_deuterium_1,scaled_trapped_deuterium_2,scaled_trapped_deuterium_3,scaled_trapped_deuterium_4,scaled_trapped_deuterium_5,scaled_trapped_deuterium_intrinsic,temperature
302582.64124551,23852689042492,21184113857.364,0,5.9004997430358e+16,1.1583080536831e+20,7.1951428877033e+19,4.9114945031347e+19,7.4284105663858e+19,1.9701311002936e+19,1.8819533226283e+19,309.13206227549
302782.64124551,88319992950167,144022696366.29,0,7.7790874192262e+16,1.158215077743e+20,7.1951419734604e+19,4.9114945031187e+19,7.4284105663858e+19,1.9701311002936e+19,1.8799130192117e+19,319.13206227549
302982.64124551,2.5737072974153e+14,748620822549.08,0,1.0587038022378e+17,1.157910471013e+20,7.1951394004492e+19,4.9114945030623e+19,7.4284105663857e+19,1.9701311002936e+19,1.8767263313579e+19,329.13206227549
303182.64124551,5.8515712445793e+14,2981727305580.6,0,1.4572064212309e+17,1.1571454437061e+20,7.195132937257e+19,4.9114945028803e+19,7.4284105663854e+19,1.9701311002936e+19,1.8719660241491e+19,339.13206227549
303382.64124551,1.1304401030876e+15,8850516867212.5,0,2.0034549088936e+17,1.1555669392038e+20,7.1951176322137e+19,4.9114945023136e+19,7.4284105663843e+19,1.9701311002936e+19,1.8650820679655e+19,349.13206227549
303582.64124551,1.9948067734282e+15,21170021191186,0,2.7326042195218e+17,1.1526653050746e+20,7.1950836435185e+19,4.9114945006527e+19,7.4284105663801e+19,1.9701311002936e+19,1.8553633435013e+19,359.13206227549
303782.64124551,3.2795520109384e+15,50148632748719,0,3.6819370111292e+17,1.1477350029507e+20,7.1950118272472e+19,4.9114944960691e+19,7.4284105663663e+19,1.9701311002936e+19,1.841837279072e+19,369.13206227549
303982.64124551,4.9935540094743e+15,1.2298282116176e+14,0,4.885586684902e+17,1.1399767599024e+20,7.1948655116279e+19,4.9114944840339e+19,7.4284105663233e+19,1.9701311002936e+19,1.8230709141725e+19,379.13206227549
304182.64124551,7.0929774256277e+15,3.2124742216683e+14,0,6.367128250358e+17,1.1286588871214e+20,7.1945756579701e+19,4.9114944537067e+19,7.4284105661963e+19,1.9701311002935e+19,1.7964720196695e+19,389.13206227549
304382.64124551,9.7384256094243e+15,6.1187863005529e+14,0,8.1316360147304e+17,1.1129541811699e+20,7.1940178847961e+19,4.9114943802624e+19,7.4284105658382e+19,1.9701311002932e+19,1.758909361031e+19,399.13206227549
304582.64124551,1.3257512820403e+16,9.117752302615e+14,0,1.0163472369758e+18,1.0915342868665e+20,7.1929816708476e+19,4.9114942097988e+19,7.428410564877e+19,1.9701311002923e+19,1.7087738017806e+19,409.13206227549
304782.64124551,1.7788931423961e+16,1.236562582748e+15,0,1.242670113879e+18,1.0626454985587e+20,7.1911173997299e+19,4.9114938288865e+19,7.4284105624095e+19,1.9701311002895e+19,1.6449889071624e+19,419.13206227549
304982.64124551,2.3346380272493e+16,1.6032241325225e+15,0,1.4857578520387e+18,1.0244284742257e+20,7.1878505963427e+19,4.9114930027635e+19,7.4284105563045e+19,1.9701311002817e+19,1.5663728920016e+19,429.13206227549
305182.64124551,2.989923768155e+16,2.0167691175435e+15,0,1.7357196743139e+18,9.750663886275e+19,7.1822763597412e+19,4.9114912538003e+19,7.4284105416597e+19,1.9701311002606e+19,1.4718746106101e+19,439.13206227549
305382.64124551,3.7323425833902e+16,2.4744519329734e+15,0,1.9788289513432e+18,9.1293433429349e+19,7.1730420382854e+19,4.911487621259e+19,7.4284105074134e+19,1.970131100205e+19,1.3608588758129e+19,449.13206227549
305582.64124551,4.5343075882496e+16,2.964710837935e+15,0,2.1976207505957e+18,8.3684700048672e+19,7.1582166844674e+19,4.9114801793066e+19,7.4284104288927e+19,1.9701311000622e+19,1.2333851223186e+19,459.13206227549
305782.64124551,5.3476282160256e+16,3.4642489130791e+15,0,2.3714383797122e+18,7.46423816074e+19,7.1350493384616e+19,4.9114650477962e+19,7.42841025123e+19,1.9701310997023e+19,1.0905409311857e+19,469.13206227549
305982.64124551,6.1005825133184e+16,3.9350552830011e+15,0,2.4775622464665e+18,6.4257684040735e+19,7.0992723747084e+19,4.9114342962589e+19,7.4284098516138e+19,1.9701310988059e+19,9.3484243876299e+18,479.13206227549
306182.64124551,6.6998392627405e+16,4.3227448353467e+15,0,2.4932104580601e+18,5.2810920525784e+19,7.0433472426266e+19,4.9113713210438e+19,7.4284089504639e+19,1.9701310965786e+19,7.7064945356444e+18,489.13206227549
306382.64124551,7.0404851442296e+16,4.5581693758845e+15,0,2.3988978677296e+18,4.0836425580272e+19,6.9530168243485e+19,4.911240183026e+19,7.4284068935793e+19,1.9701310910049e+19,6.0446190520074e+18,499.13206227549
306582.64124551,7.0336084730762e+16,4.5653207589012e+15,0,2.1837810847252e+18,2.9173439320871e+19,6.8016352647581e+19,4.9109602561706e+19,7.4284020985072e+19,1.9701310768248e+19,4.4486272735256e+18,509.13206227549
306782.64124551,6.6672191381825e+16,4.2796464514901e+15,0,1.8533775053034e+18,1.8944086953283e+19,6.5431286445782e+19,4.9103483396555e+19,7.4283906687444e+19,1.9701310400758e+19,3.0177175881809e+18,519.13206227549
306982.64124551,6.0795106864259e+16,3.6797569714424e+15,0,1.4384557847914e+18,1.128021665239e+19,6.1165770441205e+19,4.9090156046054e+19,7.4283634505003e+19,1.9701309451098e+19,1.8466490319463e+18,529.1320622755
307182.64124551,5.5135399234623e+16,2.8267469880777e+15,0,9.987075763721e+17,6.5646247889333e+18,5.4969462104521e+19,4.9062845534311e+19,7.4283019047441e+19,1.9701307119901e+19,9.9683455575532e+17,539.13206227549
307382.64124551,5.114476889382e+16,1.88327461733e+15,0,6.0852074302896e+17,3.9956738202663e+18,4.7415908059583e+19,4.9011870537677e+19,7.4281732555415e+19,1.9701301827612e+19,4.6681221139021e+17,549.13206227549
307582.64124551,4.8529562971729e+16,1.0636296813838e+15,0,3.2444164646249e+17,2.550063262538e+18,3.9247690937173e+19,4.8922978928788e+19,7.4279176900237e+19,1.9701290434763e+19,1.9007669017211e+17,559.13206227549
307782.64124551,4.6211518046594e+16,5.1398358229992e+14,0,1.5837643851487e+17,1.6574270209496e+18,3.0943010798429e+19,4.8772331469899e+19,7.4274158389815e+19,1.9701266288318e+19,7.0849015984389e+16,569.13206227549
307982.64124551,4.3168212931734e+16,2.3479539336655e+14,0,8.089779108135e+16,1.0646559004617e+18,2.2903944463935e+19,4.8516305243813e+19,7.4264149573219e+19,1.9701214502406e+19,2.7763827497058e+16,579.13206227549
308182.64124551,3.8803934922401e+16,1.2768309953812e+14,0,4.9982583741347e+16,6.568379102634e+17,1.5591025530122e+19,4.8067339246346e+19,7.4243528121414e+19,1.970109996761e+19,1.3257421984029e+16,589.13206227549
308382.64124551,3.3271953462453e+16,91721430245399,0,3.5679570429412e+16,3.7903247531802e+17,9.5327919265378e+18,4.7242139084529e+19,7.4199470536953e+19,1.9700836835651e+19,7.3739959449616e+15,599.13206227549
308582.64124551,2.7779631163262e+16,71718527211027,0,2.534099390053e+16,2.0432764783881e+17,5.2318513940975e+18,4.5714760671806e+19,7.4105329558417e+19,1.9700227701908e+19,4.1138461246304e+15,609.13206227549
308782.64124551,2.3930436191777e+16,53217487119136,0,1.7340530639707e+16,1.1233346710072e+17,2.8245508110311e+18,4.3229744235391e+19,7.3924293011137e+19,1.9698937485036e+19,2.2283241215424e+15,619.13206227549
308982.64124551,2.2192444283172e+16,40268509806200,0,1.2843601935917e+16,7.0912174716732e+16,1.7123875931661e+18,4.0056903038956e+19,7.3635506443515e+19,1.969661231937e+19,1.3161177648338e+15,629.13206227549
309182.64124551,2.2026483416014e+16,35548080375302,0,1.1105217575841e+16,5.0795870850893e+16,1.16835816477e+18,3.6598785514148e+19,7.3230213819044e+19,1.9692849779874e+19,9.1388184789834e+14,639.13206227549
309382.64124551,2.2809006732991e+16,36027106956104,0,1.0660769654901e+16,3.8967282911315e+16,8.5192674860598e+17,3.298372198436e+19,7.2686087803289e+19,1.9686990206301e+19,7.0931029291539e+14,649.13206227549
309582.64124551,2.4111138244402e+16,38673953909270,0,1.0680144253285e+16,3.086691928149e+16,6.413926499677e+17,2.9234209523388e+19,7.196174099994e+19,1.9677975701389e+19,5.7824093058473e+14,659.13206227549
309782.64124551,2.5657919530411e+16,42145596331160,0,1.0824537422835e+16,2.475674404377e+16,4.8926346371713e+17,2.5385390265993e+19,7.0996124216498e+19,1.9664195055575e+19,4.798437399058e+14,669.13206227549
309982.64124551,2.725896786899e+16,45796345415537,0,1.0935362658602e+16,1.988521130436e+16,3.7412051493538e+17,2.1513992253199e+19,6.9706924689232e+19,1.964326236166e+19,3.9924495425458e+14,679.13206227549
310182.64124551,2.8774025175784e+16,49151035890314,0,1.0922193231648e+16,1.5901073994975e+16,2.8510254201956e+17,1.7741164193532e+19,6.7990823271385e+19,1.9611740979484e+19,3.3027650500593e+14,689.13206227549
310382.64124551,3.0110115731236e+16,51868310181202,0,1.0747498611169e+16,1.2635549295553e+16,2.1614130345867e+17,1.4221158790778e+19,6.5731225565759e+19,1.9564876879163e+19,2.7063111066915e+14,699.13206227549
310582.64124551,3.1230654731407e+16,53848661358513,0,1.043343304097e+16,1.0001097656343e+16,1.6339389264517e+17,1.1110609317801e+19,6.2821251517845e+19,1.9496457773748e+19,2.1990845988821e+14,709.13206227549
310782.64124551,3.215503936544e+16,55318950842738,0,1.0055800215861e+16,7.9296586145536e+15,1.2386770836219e+17,8.5194202508738e+18,5.9202820592993e+19,1.9398865290954e+19,1.7828880135503e+14,719.13206227549
310982.64124551,3.2934545960215e+16,56733213944000,0,9.7049963137812e+15,6.3363634534934e+15,9.4738484714545e+16,6.4697716128309e+18,5.4899503622086e+19,1.9263099011724e+19,1.454304943016e+14,729.13206227549
311182.64124551,3.360943988769e+16,58479047493310,0,9.4331816558998e+15,5.116685460054e+15,7.330313336396e+16,4.9003288998021e+18,5.0010928165423e+19,1.9078266349075e+19,1.2001826748941e+14,739.13206227549
311382.64124551,3.417058334043e+16,60637561351322,0,9.2333781246206e+15,4.1677193820518e+15,5.7271744780289e+16,3.7109318865629e+18,4.4675302573808e+19,1.8830313616608e+19,1.0017886383446e+14,749.13206227549
311582.64124551,3.4545478101683e+16,62971367288917,0,9.0572035542518e+15,3.4070444088596e+15,4.4955329022992e+16,2.8050864513498e+18,3.9039869107272e+19,1.8500256770101e+19,84150805572059,759.1320622755
311782.64124551,3.4609481853307e+16,65036609008507,0,8.8408042226005e+15,2.7773534491198e+15,3.5224011763086e+16,2.1078354903545e+18,3.3256702636934e+19,1.8062079078612e+19,70624581761638,769.13206227549
311982.64124551,3.4211898258515e+16,66287535758396,0,8.5218551965587e+15,2.2424324964883e+15,2.7362864390572e+16,1.5662823358224e+18,2.7492570911205e+19,1.748026936556e+19,58760044877690,779.13206227549
312182.64124551,3.3210107147589e+16,66166802880586,0,8.0508497080659e+15,1.7815029886994e+15,2.0935325835586e+16,1.1444557413642e+18,2.193827667825e+19,1.6707538015736e+19,48094279570743,789.13206227549
312382.64124551,3.151120879979e+16,64229439885141,0,7.403458498127e+15,1.384618345729e+15,1.5684709298513e+16,8.180353322355e+17,1.6807848739775e+19,1.5685202330739e+19,38454676410466,799.13206227549
312582.64124551,2.9118188006888e+16,60326971323643,0,6.5954790512882e+15,1.0489786076746e+15,1.1464476126624e+16,5.701133981098e+17,1.2318584981544e+19,1.435277932994e+19,29889932741950,809.1320622755
312782.64124551,2.6161071846231e+16,54788523282904,0,5.6913838628864e+15,7.7491916374148e+14,8.1782286788594e+15,3.8764475172722e+17,8.6432792123237e+18,1.2676793235511e+19,22579110331427,819.13206227549
312982.64124551,2.2873685185141e+16,48382932455400,0,4.7857913346254e+15,5.6089317712443e+14,5.7208326290654e+15,2.5844550714531e+17,5.8440323370658e+18,1.0696625173576e+19,16674276677826,829.13206227549
313092.64124551,2.1016482425586e+16,44787561302229,0,4.3161450550131e+15,4.6640970084103e+14,4.6702812630203e+15,2.0549747557799e+17,4.6534648551654e+18,9.5235974484738e+18,14019988385735,834.63206227549
313112.64124551,2.0677992819613e+16,44137422379396,0,4.2337146050255e+15,4.5081539241378e+14,4.4991469833414e+15,1.9702298638465e+17,4.4609067813572e+18,9.3070684361174e+18,13579425984224,835.63206227549
313132.64124551,2.0339416629301e+16,43491561683127,0,4.1523383282171e+15,4.3568004812008e+14,4.3336967266411e+15,1.8887312045397e+17,4.2752622728196e+18,9.0900760201075e+18,13151458078479,836.63206227549
313152.64124551,2.0001691071809e+16,42849376705193,0,4.071953438519e+15,4.2099102646818e+14,4.1737505090165e+15,1.8103594969083e+17,4.0963368536808e+18,8.8728197672179e+18,12735570270785,837.63206227549
313172.64124551,1.9664880808733e+16,42210185273640,0,3.9925189638253e+15,4.0673546434495e+14,4.0191284125062e+15,1.7349973225475e+17,3.9239325931897e+18,8.655492666317e+18,12331333271699,838.63206227549
313192.64124551,1.9328984672061e+16,41573667471294,0,3.9140098286178e+15,3.9290052329242e+14,3.8696530162041e+15,1.6625301606219e+17,3.7578511705496e+18,8.4382865311127e+18,11938380091837,839.63206227549
313212.64124551,1.8994015926282e+16,40939682376795,0,3.8364062263368e+15,3.7947345753599e+14,3.7251500294571e+15,1.5928466168381e+17,3.5978948961371e+18,8.2213919475889e+18,11556370593398,840.63206227549
313232.64124551,1.8659994877639e+16,40308130315320,0,3.7596881837937e+15,3.6644165719995e+14,3.5854486696712e+15,1.5258385357715e+17,3.443867438557e+18,8.0049974625729e+18,11184974013587,841.63206227549
313252.64124551,1.8326941415353e+16,39678899752237,0,3.6838335488794e+15,3.5379268793734e+14,3.4503819975625e+15,1.461401091042e+17,3.2955744881611e+18,7.7892888668089e+18,10823862798487,842.63206227549
313272.64124551,1.7994871325448e+16,39051850027062,0,3.6088175564972e+15,3.4151432827639e+14,3.319787223458e+15,1.3994328597351e+17,3.152824368806e+18,7.5744486227031e+18,10472711461276,843.6320622755
313292.64124551,1.766379471106e+16,38426808174147,0,3.5346130286783e+15,3.2959460394004e+14,3.1935059780787e+15,1.3398358787391e+17,3.0154285891666e+18,7.3606554047721e+18,10131197341888,844.63206227549
313312.64124551,1.7333715512864e+16,37803571294458,0,3.4611907993755e+15,3.1802181860881e+14,3.0713845434783e+15,1.2825156817191e+17,2.8832023284313e+18,7.1480837282267e+18,9799001948318.7,845.63206227549
313332.64124551,1.7004631633705e+16,37181910916098,0,3.3885202004604e+15,3.0678458088564e+14,2.9532740426981e+15,1.2273813167262e+17,2.7559648550158e+18,6.9369036501306e+18,9475812370602.8,846.6320622755
313352.64124551,1.6676535417071e+16,36561577928921,0,3.3165695472076e+15,2.9587182741071e+14,2.8390305885611e+15,1.1743453452301e+17,2.6335398793886e+18,6.7272805323322e+18,9161322587332.7,847.63206227549
313372.64124551,1.6349414345554e+16,35942307564439,0,3.2453066009818e+15,2.8527284219384e+14,2.7285153931596e+15,1.1233238238166e+17,2.5157558436389e+18,6.519374857636e+18,8855234609419.7,848.63206227549
313392.64124551,1.6023251881832e+16,35323824228457,0,3.174699001684e+15,2.7497727230973e+14,2.6215948403032e+15,1.0742362700519e+17,2.4024461513858e+18,6.3133420918193e+18,8557259451469.7,849.63206227549
313412.64124551,1.5698028403189e+16,34705846117807,0,3.1047146680941e+15,2.6497514015288e+14,2.518140523618e+15,1.0270056141436e+17,2.2934493422353e+18,6.109332584756e+18,8267117937425.7,850.63206227549
313432.64124551,1.537372219605e+16,34088089599233,0,3.0353221663895e+15,2.5525685248146e+14,2.4180292532414e+15,9.8155813808237e+16,2.1886092153392e+18,5.9074915043839e+18,7984541352628.6,851.63206227549
313452.64124551,1.5050310486205e+16,33470273346801,0,2.9664910479554e+15,2.458132064992e+14,2.3211430341613e+15,9.3782340393213e+16,2.0877749067701e+18,5.7079587976744e+18,7709271955952.2,852.63206227549
313472.64124551,1.4727770486449e+16,32852122241847,0,2.898192157937e+15,2.3663539323293e+14,2.2273690192604e+15,8.9573417289224e+16,1.9908009254399e+18,5.5108691731843e+18,7441063365671.3,853.63206227549
313492.64124551,1.4406080447525e+16,32233371042806,0,2.8303979161062e+15,2.2771499846431e+14,2.1365994400579e+15,8.5522631666697e+16,1.8975471521941e+18,5.3163521001929e+18,7179680832145.9,854.63206227549
313512.64124551,1.4085220701382e+16,31613767833839,0,2.7630825716436e+15,2.1904400146869e+14,2.0487315180117e+15,8.1623872257805e+16,1.8078788065365e+18,5.1245318198717e+18,6924901409607.3,855.63206227549
313532.64124551,1.3765174688108e+16,30993077261854,0,2.6962224334163e+15,2.1061477180323e+14,1.9636673590776e+15,7.7871319373785e+16,1.7216663851977e+18,4.9355273643799e+18,6676514038444.3,856.63206227549
313552.64124551,1.3445929959648e+16,30371083571686,0,2.6297960772661e+15,2.0242006437261e+14,1.881313834023e+15,7.4259434547654e+16,1.6387855764841e+18,4.7494525802241e+18,6434319548461.7,857.63206227549
313572.64124551,1.3127479154784e+16,29747593448939,0,2.5637845317402e+15,1.9445301298393e+14,1.8015824467774e+15,7.0782949908959e+16,1.5591171540369e+18,4.5664161526671e+18,6198130592645.4,858.63206227549
313592.64124551,1.2809820940873e+16,29122438679404,0,2.498171443576e+15,1.8670712258399e+14,1.7243891928777e+15,6.7436857384562e+16,1.4825468533124e+18,4.3865216283983e+18,5967771520038.7,859.63206227549
313612.64124551,1.2492960918528e+16,28495478633059,0,2.4329432241208e+15,1.7917626035356e+14,1.6496544098398e+15,6.421639780721e+16,1.4089652337775e+18,4.2098674340948e+18,5743078195412.4,860.63206227549
313632.64124551,1.217691248593e+16,27866602579413,0,2.3680891777113e+15,1.7185464581341e+14,1.577302621066e+15,6.1117050002059e+16,1.3382675294953e+18,4.0365468889019e+18,5523897772523.7,861.63206227549
313652.64124551,1.1861697659715e+16,27235731839545,0,2.3036016128733e+15,1.6473684007846e+14,1.5072623746848e+15,5.8134519910403e+16,1.2703534904776e+18,3.8666482092363e+18,5310088426903.3,862.63206227549
313672.64124551,1.1547347849516e+16,26602821778464,0,2.2394759370243e+15,1.5781773437751e+14,1.4394660785173e+15,5.5264729799879e+16,1.2051272168905e+18,3.7002545046751e+18,5101519053300.1,863.63206227549
313692.64124551,1.1233904583153e+16,25967863639569,0,2.1757107351819e+15,1.5109253793895e+14,1.373849832177e+15,5.2503807601326e+16,1.1424969879338e+18,3.537443764028e+18,4898068932155.2,864.63206227549
313712.64124551,1.0921420179343e+16,25330886221026,0,2.1123078329935e+15,1.4455676532659e+14,1.3103532571372e+15,4.9848076404316e+16,1.0823750869691e+18,3.3782888310069e+18,4699627368775,865.63206227549
313732.64124551,1.0609958364488e+16,24691957391721,0,2.0492723442219e+15,1.3820622329464e+14,1.2489193254466e+15,4.7294044136203e+16,1.0246776242458e+18,3.2228573692036e+18,4506093308232.7,866.63206227549
313752.64124551,1.0299594829769e+16,24051185442347,0,1.9866127026413e+15,1.3203699721755e+14,1.1894941876325e+15,4.4838393443239e+16,9.6932435837515e+17,3.0712118163662e+18,4317374928451,867.63206227549
313772.64124551,9.9904177243395e+15,23408720264974,0,1.9243406781248e+15,1.2604543713847e+14,1.1320270002144e+15,4.247797178697e+16,9.1623851752497e+17,2.9234093282292e+18,4133389213407.7,868.6320622755
313792.64124551,9.6825280799228e+15,22764754352299,0,1.8624713765442e+15,1.2022814346967e+14,1.076469753143e+15,4.0209781764621e+16,8.6534662114795e+17,2.779501712401e+18,3954061507960.4,869.63206227549
313812.64124551,9.3760401616295e+15,22119523605651,0,1.801023222951e+15,1.1458195236942e+14,1.022777097398e+15,3.8030971658473e+16,8.1657830292674e+17,2.6395353530509e+18,3779325055409,870.63206227549
313832.64124551,9.0710817392712e+15,21473307938827,0,1.7400179273754e+15,1.0910392081293e+14,9.7090617290444e+14,3.5938826216367e+16,7.6986613550157e+17,2.5035511273638e+18,3609120518604.8,871.6320622755
313852.64124551,8.7677942729367e+15,20826431662935,0,1.6794804324625e+15,1.0379131136918e+14,9.2081643687873e+14,3.393075766328e+16,7.25145457453e+17,2.3715843149477e+18,3443395485169.6,872.63206227549
313872.64124551,8.4663330061091e+15,20179263635722,0,1.619438842072e+15,98641576691883,8.7246949267579e+14,3.2004296942418e+16,6.823542029355e+17,2.2436645015869e+18,3282103957211.4,873.63206227549
313892.64124551,8.1668669591564e+15,19532217157392,0,1.5599243298965e+15,93652343730581,8.2582891918982e+14,3.0157085183455e+16,6.4143273429827e+17,2.1198154789343e+18,3125205825813.4,874.63206227549
313912.64124551,7.8695788156706e+15,18885749593699,0,1.5009710271114e+15,88821397667392,7.8086010085485e+14,2.8386865395241e+16,6.0232367798614e+17,2.0000551419255e+18,2972666330524,875.63206227549
