time,average,flux_surface_left,flux_surface_right,scaled_flux_surface_left,scaled_flux_surface_right,temperature
0,0,0,0,-0,0,370
1,14.782542206256,52758339.584169,4.5471907391876e-77,-5.2758339584169e+19,4.5471907391876e-65,370
2.1,21.933783392439,52768435.002652,2.253158557283e-76,-5.2768435002652e+19,2.253158557283e-64,370
3.31,27.797812081882,52766982.011375,1.4243124670981e-75,-5.2766982011375e+19,1.4243124670981e-63,370
4.641,32.953847689267,52767474.083857,1.4839678092202e-74,-5.2767474083857e+19,1.4839678092202e-62,370
6.1051,37.751847256501,52767793.975517,5.032275884968e-73,-5.2767793975517e+19,5.032275884968e-61,370
7.71561,42.380813536416,52768035.049691,2.6430243472891e-69,-5.2768035049691e+19,2.6430243472891e-57,370
9.487171,46.939558612026,52768233.075497,1.7601369536005e-64,-5.2768233075497e+19,1.7601369536005e-52,370
11.4358881,51.486687013291,52768399.416767,6.0848508802472e-60,-5.2768399416767e+19,6.0848508802472e-48,370
13.57947691,56.062495654995,52768541.171031,9.3307941738097e-56,-5.2768541171031e+19,9.3307941738097e-44,370
15.937424601,60.697758575109,52768663.715957,6.7458208709539e-52,-5.2768663715957e+19,6.7458208709539e-40,370
18.5311670611,65.417619426253,52768771.056729,2.4882965990732e-48,-5.2768771056729e+19,2.4882965990732e-36,370
21.38428376721,70.243635608839,52768866.144735,5.0360249316013e-45,-5.2768866144735e+19,5.0360249316013e-33,370
24.522712143931,75.19499900576,52768951.180792,5.9554767157871e-42,-5.2768951180792e+19,5.9554767157871e-30,370
27.974983358324,80.289323611852,52769027.837859,4.3422230969157e-39,-5.2769027837859e+19,4.3422230969157e-27,370
31.772481694157,85.5431812929,52769097.412096,2.0435004503291e-36,-5.2769097412096e+19,2.0435004503291e-24,370
35.949729863572,90.972481758647,52769160.92525,6.4558713941005e-34,-5.276916092525e+19,6.4558713941005e-22,370
36,86.917921433822,65303.736457258,6.9378545562019e-35,-6.5303736457258e+16,6.9378545562019e-23,295
45,79.208044556672,856.3028859794,9.1083585962195e-35,-8.563028859794e+14,9.1083585962195e-23,295
54,74.069065297105,342.53604094073,1.2829063962575e-34,-3.4253604094073e+14,1.2829063962575e-22,295
63.9,69.71302054587,297.11123809423,1.9055449714392e-34,-2.9711123809424e+14,1.9055449714392e-22,295
72,66.617711508192,284.87719783111,3.3562298691638e-34,-2.8487719783111e+14,3.3562298691638e-22,300
73,66.265045933399,279.54157249888,3.524102785368e-34,-2.7954157249888e+14,3.524102785368e-22,300.05
74.1,65.884462694782,273.98823136674,3.7184037193484e-34,-2.7398823136674e+14,3.7184037193484e-22,300.105
75.31,65.474592506104,267.95084928509,3.9448551110972e-34,-2.6795084928509e+14,3.9448551110972e-22,300.1655
76.641,65.034201793224,261.40241219674,4.2104955755601e-34,-2.6140241219674e+14,4.2104955755601e-22,300.23205
78.1051,64.56215924412,254.38371553982,4.5242342718935e-34,-2.5438371553982e+14,4.5242342718935e-22,300.305255
79.71561,64.057406997271,246.95772631544,4.8975352160225e-34,-2.4695772631544e+14,4.8975352160225e-22,300.3857805
81.487171,63.518944028898,239.19314636222,5.3453473720983e-34,-2.3919314636222e+14,5.3453473720983e-22,300.47435855
83.4358881,62.945820589743,231.15668076963,5.8874191565144e-34,-2.3115668076963e+14,5.8874191565144e-22,300.571794405
85.57947691,62.337140693726,222.9098985368,6.5501977486695e-34,-2.229098985368e+14,6.5501977486695e-22,300.6789738455
87.937424601,61.692069739146,214.50847528067,7.3696239126598e-34,-2.1450847528067e+14,7.3696239126598e-22,300.79687123005
90.5311670611,61.009844951639,206.00253058548,8.3953200932958e-34,-2.0600253058548e+14,8.3953200932958e-22,300.92655835305
93.38428376721,60.289787018165,197.43733862086,9.6969886497559e-34,-1.9743733862086e+14,9.6969886497559e-22,301.06921418836
96.522712143931,59.531311892121,188.8540398267,1.1374392286008e-33,-1.888540398267e+14,1.1374392286008e-21,301.2261356072
99.974983358324,58.733942226327,180.29020279444,1.3573278522287e-33,-1.8029020279444e+14,1.3573278522287e-21,301.39874916792
103.77248169416,57.897318205834,171.78021333585,1.6511423061606e-33,-1.7178021333585e+14,1.6511423061606e-21,301.58862408471
107.94972986357,57.021207718151,163.35552549185,2.0522387705954e-33,-1.6335552549185e+14,2.0522387705954e-21,301.79748649318
112.54470284993,56.105515855416,155.04482221946,2.6131255395543e-33,-1.5504482221946e+14,2.6131255395543e-21,302.0272351425
117.59917313492,55.15029373998,146.87412513599,3.4190068322489e-33,-1.4687412513599e+14,3.4190068322489e-21,302.27995865675
123.15909044841,54.15574664005,138.86687916727,4.6128968560225e-33,-1.3886687916727e+14,4.6128968560225e-21,302.55795452242
129.27499949326,53.122241316581,131.0440270265,6.444104416323e-33,-1.310440270265e+14,6.444104416323e-21,302.86374997466
136.00249944258,52.050312523666,123.42408167475,9.3661572171262e-33,-1.2342408167475e+14,9.3661572171262e-21,303.20012497213
143.40274938684,50.940668572454,116.02320109126,1.4244893436242e-32,-1.1602320109126e+14,1.4244893436242e-20,303.57013746934
151.54302432552,49.794195862068,108.85526757449,2.2826919115244e-32,-1.0885526757449e+14,2.2826919115244e-20,303.97715121628
160.49732675808,48.611962279862,101.93197235292,3.8866175099087e-32,-1.0193197235292e+14,3.8866175099087e-20,304.4248663379
170.34705943388,47.395219378404,95.262905435122,7.1048049829781e-32,-95262905435122,7.1048049829781e-20,304.91735297169
181.18176537727,46.145403249299,88.855649985346,1.4128855772511e-31,-88855649985346,1.4128855772511e-19,305.45908826886
193.099941915,44.86413403557,82.715880300469,3.1092778647318e-31,-82715880300469,3.1092778647318e-19,306.05499709575
206.2099361065,43.55321405004,76.847462912373,7.7474868265438e-31,-76847462912373,7.7474868265438e-19,306.71049680532
220.63092971715,42.214624543956,71.252556477565,2.2568771671763e-30,-71252556477565,2.2568771671763e-18,307.43154648586
236.49402268886,40.850521133537,65.931719402017,8.0562260746578e-30,-65931719402017,8.0562260746578e-18,308.22470113444
253.94342495775,39.463228075157,60.884010149589,3.7917142563482e-29,-60884010149589,3.7917142563482e-17,309.09717124789
273.13776745353,38.05523154611,56.107093965903,2.6444787125225e-28,-56107093965903,2.6444787125225e-16,310.05688837268
294.25154419888,36.629172202073,51.59734843616,3.2007242063923e-27,-51597348436160,3.2007242063923e-15,311.11257720994
317.47669861877,35.187837333745,47.349971052644,7.3317495708875e-26,-47349971052644,7.3317495708875e-14,312.27383493094
343.02436848064,33.734152997645,43.359088928879,2.7822021830438e-24,-43359088928879,2.7822021830438e-12,313.55121842403
371.12680532871,32.271176527075,39.617871336808,1.3714977920988e-22,-39617871336808,1.3714977920988e-10,314.95634026643
402.03948586158,30.802089830638,36.118645579665,7.308437192069e-21,-36118645579665,7.308437192069e-09,316.50197429308
436.04343444774,29.330193847778,32.853016467187,3.7878131692081e-19,-32853016467187,3.7878131692081e-07,318.20217172239
473.44777789251,27.858904444443,29.811989292284,1.8000707654328e-17,-29811989292284,1.8000707654328e-05,320.07238889463
514.59255568176,26.391749890594,26.9860957278,7.5763965428228e-16,-26986095727800,0.00075763965428228,322.12962778409
559.85181124994,24.932369862801,24.365521472188,2.7624201394474e-14,-24365521472188,0.027624201394474,324.3925905625
609.63699237493,23.484515666859,21.940233762469,8.5909033985199e-13,-21940233762469,0.85909033985199,326.88184961875
664.40069161242,22.052051100737,19.70010599837,2.2520815330489e-11,-19700105998370,22.520815330489,329.62003458062
724.64076077367,20.638953131298,17.63503557601,4.9293478324997e-10,-17635035576010,492.93478324997,332.63203803868
790.90483685103,19.249311449776,15.73504937924,8.9378059991153e-09,-15735049379240,8937.8059991153,335.94524184255
863.79532053614,17.887326219188,13.990388727867,1.3337542095139e-07,-13990388727867,133375.42095139,339.58976602681
943.97485258975,16.557304330455,12.391560885942,1.6293825885808e-06,-12391560885942,1629382.5885808,343.59874262949
1032.1723378487,15.263656706336,10.929335249862,1.6227911676521e-05,-10929335249862,16227911.676521,348.00861689244
1129.1895716336,14.010901354327,9.594644223699,0.00013135324677877,-9594644223699,131353246.77877,352.85947858168
1229.1895716336,12.875295344043,8.4520095388777,0.00075694110282775,-8452009538877.7,756941102.82775,357.85947858168
1329.1895716336,11.872087995859,7.4928822417023,0.0031982494004074,-7492882241702.3,3198249400.4074,362.85947858168
1429.1895716336,10.980612184616,6.6742450936793,0.010677658422641,-6674245093679.3,10677658422.641,367.85947858168
1529.1895716336,10.184845444777,5.9539295741854,0.02945812741945,-5953929574185.4,29458127419.45,372.85947858168
1629.1895716336,9.4696323496538,5.3304769362239,0.069173863354954,-5330476936223.9,69173863354.954,377.85947858168
1729.1895716336,8.8231250753545,4.756136121561,0.14134365563535,-4756136121561,141343655635.35,382.85947858168
1829.1895716336,8.2338957458627,4.2292012405854,0.25584501648948,-4229201240585.4,255845016489.48,387.85947858168
1929.1895716336,7.6922421134882,3.7267517557015,0.41654784132471,-3726751755701.5,416547841324.71,392.85947858168
2029.1895716336,7.1903729245679,3.2379601948831,0.61823347056146,-3237960194883.1,618233470561.46,397.85947858168
2129.1895716336,6.7232019739746,2.7524186756744,0.84648938461124,-2752418675674.4,846489384611.24,402.85947858168
2229.1895716336,6.7232019739746,3.0384759851333,0.93446454550791,-3038475985133.3,934464545507.91,407.85947858168
2329.1895716336,6.4750344284926,1.8332824479777,1.145032112492,-1833282447977.7,1145032112492,412.85947858168
2429.1895716336,6.4750344284926,2.0143170976612,1.2581027894027,-2014317097661.2,1258102789402.7,417.85947858168
2529.1895716336,6.4750344284926,2.2083052743206,1.3792639841569,-2208305274320.6,1379263984156.9,422.85947858168
2629.1895716336,6.4750344284926,2.4157784362623,1.5088476351462,-2415778436262.3,1508847635146.2,427.85947858168
2729.1895716336,6.4750344284926,2.6372673136589,1.6471852259841,-2637267313658.9,1647185225984.1,432.85947858168
2829.1895716336,6.4750344284926,2.8733010338108,1.7946072391623,-2873301033810.8,1794607239162.2,437.85947858168
2929.1895716336,6.4750344284926,3.1244062749313,1.95144262752,-3124406274931.3,1951442627520,442.85947858168
3029.1895716336,6.4750344284926,3.3911064503552,2.1180183047183,-3391106450355.2,2118018304718.3,447.85947858168
3129.1895716336,6.4750344284926,3.6739209247762,2.2946586557165,-3673920924776.2,2294658655716.5,452.85947858168
3229.1895716336,6.4750344284926,3.9733642638274,2.4816850680751,-3973364263827.4,2481685068075.1,457.85947858168
3329.1895716336,6.4750344284926,4.2899455180554,2.6794154847406,-4289945518055.4,2679415484740.6,462.85947858168
3429.1895716336,6.4750344284926,4.6241675420893,2.8881639788109,-4624167542089.3,2888163978810.9,467.85947858168
3529.1895716336,6.4750344284926,4.9765263495721,3.1082403506391,-4976526349572.1,3108240350639.1,472.85947858168
3629.1895716336,6.4750344284926,5.3475105042093,3.3399497474938,-5347510504209.3,3339949747493.8,477.85947858168
3729.1895716336,6.4750344284926,5.7376005470953,3.583592305879,-5737600547095.3,3583592305879,482.85947858168
3829.1895716336,6.4750344284926,6.1472684602956,3.8394628164974,-6147268460295.6,3839462816497.4,487.85947858168
3929.1895716336,6.4750344284926,6.5769771665021,4.1078504117458,-6576977166502.1,4107850411745.8,492.85947858168
4029.1895716336,6.4750344284926,7.0271800644333,4.3890382755346,-7027180064433.3,4389038275534.6,497.85947858168
4129.1895716336,6.4750344284926,7.4983205995184,4.6833033751455,-7498320599518.4,4683303375145.5,502.85947858168
4229.1895716336,6.4750344284926,7.9908318692875,4.9909162147665,-7990831869287.5,4990916214766.5,507.85947858168
4329.1895716336,6.4750344284926,8.5051362627894,5.3121406102791,-8505136262789.4,5312140610279.1,512.85947858168
4429.1895716336,6.4750344284926,9.0416451332669,5.6472334848174,-9041645133266.9,5647233484817.4,517.85947858168
4529.1895716336,6.4750344284926,9.6007585032423,5.996444684571,-9600758503242.3,5996444684571,522.85947858168
4629.1895716336,6.4750344284926,10.182864801101,6.3600168142596,-10182864801101,6360016814259.6,527.85947858168
4729.1895716336,6.4750344284926,10.788340628203,6.738185091676,-10788340628203,6738185091676,532.85947858168
4829.1895716336,6.4750344284926,11.41755055551,7.1311772206632,-11417550555510,7131177220663.2,537.85947858168
4929.1895716336,6.4750344284926,12.070846948679,7.5392132818703,-12070846948679,7539213281870.3,542.85947858168
5029.1895716336,6.4750344284926,12.748569820533,7.9625056406118,-12748569820533,7962505640611.8,547.85947858168
5129.1895716336,6.4750344284926,13.451046709833,8.4012588711456,-13451046709833,8401258871145.6,552.85947858168
5229.1895716336,6.4750344284926,14.178592585204,8.8556696966736,-14178592585204,8855669696673.6,557.85947858168
5329.1895716336,6.4750344284926,14.931509773133,9.3259269443647,-14931509773133,9325926944364.7,562.85947858168
5429.1895716336,6.4750344284926,15.710087908886,9.8122115147013,-15710087908886,9812211514701.3,567.85947858168
5529.1895716336,6.4750344284926,16.514603909237,10.314696364448,-16514603909237,10314696364448,572.85947858168
5629.1895716336,6.4750344284926,17.345321965913,10.833546502555,-17345321965913,10833546502555,577.85947858168
5729.1895716336,6.4750344284926,18.202493558626,11.368918998296,-18202493558626,11368918998296,582.85947858168
5829.1895716336,6.4750344284926,19.086357486638,11.920963000988,-19086357486638,11920963000988,587.85947858168
5929.1895716336,6.4750344284926,19.997139917781,12.489819770605,-19997139917781,12489819770605,592.85947858168
6029.1895716336,6.4750344284926,20.93505445389,13.075622718647,-20935054453890,13075622718647,597.85947858168
6129.1895716336,6.4750344284926,21.900302211636,13.678497458624,-21900302211636,13678497458624,602.85947858168
6229.1895716336,6.4750344284926,22.893071917756,14.298561865541,-22893071917756,14298561865541,607.85947858168
6329.1895716336,6.4750344284926,23.913540017728,14.935926143768,-23913540017728,14935926143768,612.85947858168
6429.1895716336,6.4750344284926,24.961870796942,15.590692902724,-24961870796942,15590692902724,617.85947858168
6529.1895716336,6.4750344284926,26.038216513464,16.262957239799,-26038216513464,16262957239799,622.85947858168
6629.1895716336,6.4750344284926,27.142717541516,16.952806829968,-27142717541516,16952806829968,627.85947858168
6729.1895716336,6.4750344284926,28.275502524828,17.660322021569,-28275502524828,17660322021569,632.85947858168
6829.1895716336,6.4750344284926,29.436688539041,18.385575937744,-29436688539041,18385575937744,637.85947858168
6929.1895716336,6.4750344284926,30.626381262391,19.128634583037,-30626381262391,19128634583037,642.85947858168
7029.1895716336,6.4750344284926,31.844675153908,19.889556954699,-31844675153908,19889556954699,647.85947858168
7129.1895716336,6.4750344284926,33.091653638424,20.668395158235,-33091653638424,20668395158235,652.85947858168
7229.1895716336,6.4750344284926,34.367389297694,21.465194526781,-34367389297694,21465194526781,657.85947858168
7329.1895716336,6.4750344284926,35.671944066981,22.279993743882,-35671944066981,22279993743882,662.85947858168
7429.1895716336,6.4750344284926,37.00536943647,23.112824969294,-37005369436470,23112824969294,667.85947858168
7529.1895716336,6.4750344284926,38.367706656926,23.963713967434,-38367706656926,23963713967434,672.85947858168
7629.1895716336,6.4750344284926,39.758986949026,24.832680238119,-39758986949026,24832680238119,677.85947858168
7729.1895716336,6.4750344284926,41.179231715823,25.719737149276,-41179231715823,25719737149276,682.85947858168
7829.1895716336,6.4750344284926,42.628452757843,26.62489207128,-42628452757843,26624892071280,687.85947858168
7929.1895716336,6.4750344284926,44.106652490329,27.548146512646,-44106652490329,27548146512646,692.85947858168
8029.1895716336,6.4750344284926,45.613824162183,28.48949625677,-45613824162183,28489496256770,697.85947858168
8129.1895716336,6.4750344284926,47.149952076165,29.448931499466,-47149952076165,29448931499466,702.85947858168
8229.1895716336,6.4750344284926,48.71501180997,30.426436987042,-48715011809970,30426436987042,707.85947858168
8329.1895716336,6.4750344284926,50.308970437775,31.421992154678,-50308970437775,31421992154678,712.85947858168
8429.1895716336,6.4750344284926,51.931786751929,32.435571264886,-51931786751929,32435571264886,717.85947858168
8529.1895716336,6.4750344284926,53.583411484432,33.467143545845,-53583411484432,33467143545845,722.85947858168
8629.1895716336,6.4750344284926,55.263787527914,34.516673329415,-55263787527914,34516673329415,727.85947858168
8729.1895716336,6.4750344284926,56.972850155795,35.58412018865,-56972850155795,35584120188650,732.85947858168
8829.1895716336,6.4750344284926,58.710527241394,36.669439074644,-58710527241394,36669439074644,737.85947858168
8929.1895716336,6.4750344284926,60.476739475697,37.772580452551,-60476739475697,37772580452551,742.85947858168
9029.1895716336,6.4750344284926,62.271400583588,38.89349043663,-62271400583588,38893490436630,747.85947858168
9129.1895716336,6.4750344284926,64.0944175383,40.032110924196,-64094417538300,40032110924196,752.85947858168
9229.1895716336,6.4750344284926,65.945690773913,41.188379728336,-65945690773913,41188379728336,757.85947858168
9329.1895716336,6.4750344284926,67.825114395694,42.362230709285,-67825114395694,42362230709285,762.85947858168
9429.1895716336,6.4750344284926,69.732576388132,43.553593904361,-69732576388132,43553593904361,767.85947858168
9529.1895716336,6.4750344284926,71.667958820505,44.762395656358,-71667958820505,44762395656358,772.85947858168
9629.1895716336,6.4750344284926,73.631138049848,45.988558740313,-73631138049848,45988558740313,777.85947858168
9729.1895716336,6.4750344284926,75.621984921188,47.232002488577,-75621984921188,47232002488577,782.85947858168
9829.1895716336,6.4750344284926,77.640364964947,48.492642914097,-77640364964947,48492642914097,787.85947858168
9929.1895716336,6.4750344284926,79.686138591399,49.77039283188,-79686138591399,49770392831880,792.85947858168
10029.189571634,6.4750344284926,81.759161282099,51.065161978551,-81759161282099,51065161978551,797.85947858168
10129.189571634,6.4750344284926,83.859283778201,52.376857129976,-83859283778201,52376857129976,802.85947858168
10229.189571634,6.4750344284926,85.986352265602,53.705382216894,-85986352265602,53705382216894,807.85947858168
10329.189571634,6.4750344284926,88.140208556845,55.050638438534,-88140208556845,55050638438534,812.85947858168
10429.189571634,6.4750344284926,90.320690269728,56.412524374172,-90320690269728,56412524374172,817.85947858168
10529.189571634,6.4750344284926,92.527631002594,57.790936092609,-92527631002594,57790936092609,822.85947858168
10629.189571634,6.4750344284926,94.760860506238,59.185767259545,-94760860506238,59185767259545,827.85947858168
10729.189571634,6.4750344284926,97.02020485243,60.596909242834,-97020204852430,60596909242834,832.85947858168
10829.189571634,6.4750344284926,99.305486599021,62.024251215603,-99305486599021,62024251215603,837.85947858168
10929.189571634,6.4750344284926,101.61652495161,63.46768025723,-1.0161652495161e+14,63467680257230,842.85947858168
11029.189571634,6.4750344284926,103.95313592179,64.927081452177,-1.0395313592179e+14,64927081452177,847.85947858168
11129.189571634,6.4750344284926,106.31513248192,66.402337986666,-1.0631513248192e+14,66402337986666,852.85947858168
11229.189571634,6.4750344284926,108.7023247165,67.893331243215,-1.087023247165e+14,67893331243215,857.85947858168
11329.189571634,6.4750344284926,111.11451997007,69.399940893019,-1.1111451997007e+14,69399940893019,862.85947858168
11429.189571634,6.4750344284926,113.55152299172,70.922044986207,-1.1355152299172e+14,70922044986207,867.85947858168
11529.189571634,6.4750344284926,116.01313607619,72.459520039961,-1.1601313607619e+14,72459520039961,872.85947858168
11629.189571634,6.4750344284926,118.49915920155,74.012241124522,-1.1849915920155e+14,74012241124522,877.85947858168
