time_[s] storage_[kg]
0.10118099302979652 190.24379944705527
0.10573540795041832 189.49891169988905
0.11129706980583966 188.43024215718543
0.11693229865980284 187.05283565502367
0.12285285222439801 184.66655780355788
0.12907317715167907 182.77947270467206
0.13560845156120965 181.110876640662
0.14247462207596026 178.8660045061378
0.14968844273341866 177.2981622256221
0.15726751586685994 175.42201069118042
0.16523033505653048 173.43841828882614
0.1735963302555497 171.6660721823082
0.18238591520064115 169.97417893022555
0.1916205372233784 168.05218813446416
0.2013227295834908 166.2128922746538
0.2115161664519248 164.51438293985655
0.2222257206778261 161.99910755241814
0.23347752448039796 161.16925748368118
0.24529903321372848 159.05482466670668
0.2577190923601801 157.02572415111263
0.2707680079158085 154.62494355008516
0.28447762033956026 152.14919968336304
0.29888138224668775 150.37359286522266
0.31401444003596457 148.8915523907956
0.3299137196498733 147.85739950394625
0.34661801667703307 147.1539628659163
0.364168091016721 146.07828189798934
0.38260676633647706 144.42649504991843
0.4019790345654808 143.00306752407977
0.4223321656786666 142.16618375820278
0.4437158230394673 140.81668059763695
0.46618218458262467 139.3776920618077
0.48978607013277037 138.6637215400845
0.5145850751694386 137.7511308913471
0.5406397113649144 136.59377779808693
0.5680135542378384 135.39647090526228
0.5967733982828546 134.95019150642992
0.6269894199548355 134.16043484995325
0.6587353489053722 133.81637125707596
0.6920886478893703 133.03324995308884
0.7271307017807289 132.546128143186
0.763947016158327 132.20620455004973
0.8026274259468746 132.01235404157464
0.8432663146217383 131.7704405667345
0.8859628445126115 131.48072949193858
0.9308211987679972 130.6154124292573
0.9779508355709136 130.42389445776521
1.0274667552261265 130.37605885876883
1.0794897807706358 129.89866676482478
1.1341468527921121 129.89866676482478
1.1915713391746847 129.89866676482478
1.2519033605278684 129.89866676482478
1.3152901320927206 129.89866676482478
1.3818863229594913 129.89866676482478
1.4518544334733026 129.89866676482478
1.5253651917487545 129.89866676482478
1.6025979702609756 129.89866676482478
1.6837412235296585 129.89866676482478
1.7689929479640398 129.89866676482478
1.8585611649909122 129.89866676482478
1.9526644286445132 129.89866676482478
2.0515323588568846 129.89866676482478
2.155406201749942 129.89866676482478
2.264539418296451 129.89866676482478
2.3791983027862518 129.89866676482478
2.4996626326068903 129.89866676482478
2.6262263509241244 129.89866676482478
2.7591982839281486 129.89866676482478
2.8989028943956354 129.89866676482478
3.0456810734064046 129.89866676482478
3.199890972146512 129.89866676482478
3.3619088758274813 129.89866676482478
3.5321301218540664 129.89866676482478
3.71097006448102 129.89866676482478
3.8988650883126375 129.89866676482478
4.09627367311813 129.89866676482478
4.303677512561114 129.89866676482478
4.52158268957292 129.89866676482478
4.75052091123781 129.89866676482478
4.991050806203276 129.89866676482478
5.243759287781261 129.89866676482478
5.509262986066333 129.89866676482478
5.788209752565336 129.89866676482478
6.081280241009909 129.89866676482478
6.389189568209258 129.89866676482478
6.712689058995716 129.89866676482478
7.052568079520933 129.89866676482478
7.40965596337617 129.89866676482478
7.784824035236465 129.89866676482478
8.178987736966638 129.89866676482478
8.593108861376932 129.89866676482478
9.028197899078956 129.89866676482478
9.485316504168322 129.89866676482478
9.965580084750556 130.1848918451724
10.470160524631286 129.9463272063807
11.000289042812028 130.42389445776521
11.557259197768774 130.42389445776521
12.14243004384419 130.42389445776521
12.757229447455348 130.42389445776521
13.403157571208673 130.66333584822257
14.081790534423744 130.9512458378559
14.794784258997849 130.9512458378559
15.543878509995732 131.0954386434898
16.330901140823627 131.432506277336
17.157772553346298 131.48072949193858
18.026510383830324 131.48072949193858
18.939234426147358 131.91553540262828
19.89817180425073 132.01235404157464
20.905662406546412 132.303236523924
21.96416459541897 132.546128143186
23.0762612058439 132.546128143186
24.244665847723713 133.424236048995
25.47222952732581 133.62015980316755
26.761947603979316 134.11122879925722
28.116967099005453 134.16043484995325
29.540594374715948 134.16043484995325
31.03630320221723 134.55473375391563
32.60774323770599 135.24754736364423
34.2587489279394 135.24754736364423
35.99334886660979 135.44614851742864
37.81577562445458 135.8442261471416
39.730476077087175 136.34346883519797
41.74212225575012 136.9449825536217
43.855622747466725 137.65010339961685
46.07613467240944 138.00402413958835
48.40907626770951 138.40961939217885
50.86014010841438 138.86733909635603
53.435306997853075 139.32657247659483
56.14086056130261 139.73605471241032
58.983402578565865 140.66179532881654
61.96986909287314 141.28236043744425
65.10754733541529 141.8536165563396
68.40409350680474 142.89818823105196
71.86755145885337 143.31816748246607
75.5063723222519 143.79211972300664
79.32943512804478 144.85096601086158
83.34606847321763 145.97114722460466
87.56607328326359 146.83042951079491
91.999746727272 147.64060005664953
96.65790734389249 148.23756485762402
101.55192143948575 149.65818535116875
106.69373082287316 150.76022776010933
112.09588194436195 152.0376125630735
117.77155651014641 152.6523560895122
123.73460364678637 153.88931008966077
129.9995736942501 155.6493219100468
136.5817537099751 156.73797351713225
143.49720477058295 158.29811589527313
150.76280116226638 160.1085506483968
158.3962715554765 161.58364978314557
166.41624226437983 163.19202517542922
174.84228269664277 165.17957460008716
183.69495310444182 166.82374319914535
192.9958547532222 168.91747796735226
202.76768263061325 171.16302229160124
213.0342808241204 172.80334670895166
223.820700702718 175.42201069118042
235.15326204431076 177.75402455496834
247.05961725822073 179.98494069593494
259.5688188594076 182.57843226227138
272.7113903590661 185.20929472463214
286.5194007445757 188.29204630639202
301.0265427305487 191.35589994325466
316.26821497190497 194.540959872921
332.28160843958807 197.48903590495212
349.10579716968357 201.07100515982614
366.78183360737586 204.71794259728324
385.35284877839194 208.43102658163875
404.86415753235303 212.83514851378402
425.3633691148496 216.21903121178156
446.9005033380294 220.46397746017666
469.52811263317534 225.61839977699645
493.301410283088 229.96350555507536
518.2784051471713 234.99495280128676
544.5200432079625 240.31273151268564
572.0903562844868 244.94083028155282
601.0566182753236 248.01497981614125
631.4895093126122 251.03560554776152
659.0096796549662 253.42976000215737
709.6887626465196 263.2006895870393
745.6219511803766 272.5348185869474
783.3745204148589 284.38231967136187
823.0385898158104 294.1437453266525
864.7109430713499 302.34882150833687
908.1533848589047 309.4082433268836
954.4923859297365 319.21770689861404
1002.82054985591 326.92074560071376
1053.5956808432193 336.2867638143228
1106.9416745109443 346.42907087637485
1162.988699601007 357.13919484272316
1221.873515600728 367.9104049162447
1284.7008739508897 378.06915435495523
1348.7385311300054 394.0343362698991
1417.0282920404663 408.75739015316174
1488.7757219783712 422.1680682093812
1564.1558907483861 433.6260978497555
1643.3527323455517 442.7885639144835
1727.1559503298022 450.99780218528144
1813.9792065650236 464.06255205896264
1905.8251822331813 483.0078266609291
2002.3215327324872 498.67157813429316
2103.703717329532 514.8432988302586
2210.2191171398417 530.5654125579955
2318.1207858531006 543.1538617921924
2437.8772398309966 562.208628981071
2563.2301384780076 583.6613883794573
2693.0124270943907 601.2644392818014
2829.365894078904 620.990966596305
2972.6232534374894 640.189384954798
3114.5161345441174 654.5471387573882
3272.2113121272737 674.9734111939415
3447.4036779718135 700.3913361628711
3621.9537241792923 722.8395350026021
3805.3416441831264 745.4600935629023
3998.0149200375386 768.5065717173682
4200.443690851311 791.9749702543717
4413.121899967027 815.5614623686474
4636.568500224656 838.9266467861335
4871.328720250428 858.8294028765999
5117.975394860863 888.9878745551179
5377.110362828188 913.1158230752177
5649.365935417969 939.6204868015521
5935.406439282102 964.0611057148581
6235.9298374721075 988.7746673293068
6551.669432528084 1017.4754513880271
6883.395655799 1037.8318068815815
7231.91794736044 1062.0961945975403
7598.086731116877 1086.9278808943723
7982.795489908097 1115.2001360190054
8386.982945682937 1140.4363696979708
8811.63535006034 1162.826124484824
9257.788890866823 1185.2205857406177
9726.532220522524 1214.7120065979334
10075.810682522986 1216.1132773256438
